# 150608 2014 pa2 instant
# pivot_ell = 1700
# norm_ell = 0
# solid angle = 179.90 nsr
0.000000  1.00000e+00
0.001042  9.94104e-01
0.002083  9.76599e-01
0.003125  9.48023e-01
0.004167  9.09249e-01
0.005208  8.61441e-01
0.006250  8.06007e-01
0.007292  7.44536e-01
0.008333  6.78730e-01
0.009375  6.10337e-01
0.010417  5.41077e-01
0.011458  4.72581e-01
0.012500  4.06332e-01
0.013542  3.43618e-01
0.014583  2.85492e-01
0.015625  2.32757e-01
0.016667  1.85951e-01
0.017708  1.45350e-01
0.018750  1.10990e-01
0.019792  8.26837e-02
0.020833  6.00625e-02
0.021875  4.26095e-02
0.022917  2.97039e-02
0.023958  2.06626e-02
0.025000  1.47804e-02
0.026042  1.13657e-02
0.027083  9.77127e-03
0.028125  9.41772e-03
0.029167  9.81019e-03
0.030208  1.05476e-02
0.031250  1.13250e-02
0.032292  1.19303e-02
0.033333  1.22357e-02
0.034375  1.21855e-02
0.035417  1.17817e-02
0.036458  1.10690e-02
0.037500  1.01195e-02
0.038542  9.01882e-03
0.039583  7.85422e-03
0.040625  6.70549e-03
0.041667  5.63825e-03
0.042708  4.70016e-03
0.043750  3.91966e-03
0.044792  3.30676e-03
0.045833  2.85557e-03
0.046875  2.54783e-03
0.047917  2.35706e-03
0.048958  2.25267e-03
0.050000  2.20378e-03
0.051042  2.18230e-03
0.052083  2.16519e-03
0.053125  2.13575e-03
0.054167  2.08402e-03
0.055208  2.00639e-03
0.056250  1.90457e-03
0.057292  1.78422e-03
0.058333  1.65338e-03
0.059375  1.52088e-03
0.060417  1.39503e-03
0.061458  1.28252e-03
0.062500  1.18781e-03
0.063542  1.11283e-03
0.064583  1.05706e-03
0.065625  1.01796e-03
0.066667  9.91525e-04
0.067708  9.73002e-04
0.068750  9.57571e-04
0.069792  9.40969e-04
0.070833  9.19946e-04
0.071875  8.92545e-04
0.072917  8.58185e-04
0.073958  8.17551e-04
0.075000  7.72346e-04
0.076042  7.24943e-04
0.077083  6.77980e-04
0.078125  6.33981e-04
0.079167  5.95024e-04
0.080208  5.62503e-04
0.081250  5.37005e-04
0.082292  5.18297e-04
0.083333  5.05428e-04
0.084375  4.96904e-04
0.085417  4.90926e-04
0.086458  4.85638e-04
0.087500  4.79366e-04
0.088542  4.70809e-04
0.089583  4.59169e-04
0.090625  4.44210e-04
0.091667  4.26232e-04
0.092708  4.05990e-04
0.093750  3.84553e-04
0.094792  3.63141e-04
0.095833  3.42952e-04
0.096875  3.25009e-04
0.097917  3.10035e-04
0.098958  2.98382e-04
0.100000  2.90008e-04
0.101042  2.84506e-04
0.102083  2.81181e-04
0.103125  2.79152e-04
0.104167  2.77477e-04
0.105208  2.75274e-04
0.106250  2.71826e-04
0.107292  2.66660e-04
0.108333  2.59590e-04
0.109375  2.50722e-04
0.110417  2.40418e-04
0.111458  2.29235e-04
0.112500  2.17841e-04
0.113542  2.06921e-04
0.114583  1.97089e-04
0.115625  1.88814e-04
0.116667  1.82365e-04
0.117708  1.77790e-04
0.118750  1.74919e-04
0.119792  1.73397e-04
0.120833  1.72740e-04
0.121875  1.72399e-04
0.122917  1.71834e-04
0.123958  1.70581e-04
0.125000  1.68305e-04
0.126042  1.64834e-04
0.127083  1.60173e-04
0.128125  1.54495e-04
0.129167  1.48107e-04
0.130208  1.41406e-04
0.131250  1.34824e-04
0.132292  1.28770e-04
0.133333  1.23582e-04
0.134375  1.19484e-04
0.135417  1.16564e-04
0.136458  1.14770e-04
0.137500  1.13920e-04
0.138542  1.13733e-04
0.139583  1.13866e-04
0.140625  1.13963e-04
0.141667  1.13695e-04
0.142708  1.12804e-04
0.143750  1.11130e-04
0.144792  1.08628e-04
0.145833  1.05365e-04
0.146875  1.01511e-04
0.147917  9.73106e-05
0.148958  9.30495e-05
0.150000  8.90161e-05
0.151042  8.54657e-05
0.152083  8.25895e-05
0.153125  8.04926e-05
0.154167  7.91845e-05
0.155208  7.85811e-05
0.156250  7.85190e-05
0.157292  7.87786e-05
0.158333  7.91138e-05
0.159375  7.92835e-05
0.160417  7.90814e-05
0.161458  7.83606e-05
0.162500  7.70493e-05
0.163542  7.51571e-05
0.164583  7.27704e-05
0.165625  7.00390e-05
0.166667  6.71545e-05
0.167708  6.43252e-05
0.168750  6.17490e-05
0.169792  5.95889e-05
0.170833  5.79539e-05
0.171875  5.68871e-05
0.172917  5.63625e-05
0.173958  5.62902e-05
0.175000  5.65304e-05
0.176042  5.69117e-05
0.177083  5.72539e-05
0.178125  5.73907e-05
0.179167  5.71897e-05
0.180208  5.65681e-05
0.181250  5.55008e-05
0.182292  5.40221e-05
0.183333  5.22192e-05
0.184375  5.02195e-05
0.185417  4.81735e-05
0.186458  4.62350e-05
0.187500  4.45421e-05
0.188542  4.32002e-05
0.189583  4.22696e-05
0.190625  4.17596e-05
0.191667  4.16288e-05
0.192708  4.17917e-05
0.193750  4.21306e-05
0.194792  4.25111e-05
0.195833  4.27996e-05
0.196875  4.28796e-05
0.197917  4.26657e-05
0.198958  4.21135e-05
0.200000  4.12236e-05
0.201042  4.00405e-05
0.202083  3.86453e-05
0.203125  3.71451e-05
0.204167  3.56585e-05
0.205208  3.43004e-05
0.206250  3.31681e-05
0.207292  3.23293e-05
0.208333  3.18147e-05
0.209375  3.16150e-05
0.210417  3.16833e-05
0.211458  3.19415e-05
0.212500  3.22916e-05
0.213542  3.26275e-05
0.214583  3.28492e-05
0.215625  3.28745e-05
0.216667  3.26489e-05
0.217708  3.21518e-05
0.218750  3.13979e-05
0.219792  3.04346e-05
0.220833  2.93352e-05
0.221875  2.81888e-05
0.222917  2.70895e-05
0.223958  2.61236e-05
0.225000  2.53600e-05
0.226042  2.48412e-05
0.227083  2.45793e-05
0.228125  2.45548e-05
0.229167  2.47201e-05
0.230208  2.50059e-05
0.231250  2.53303e-05
0.232292  2.56095e-05
0.233333  2.57680e-05
0.234375  2.57479e-05
0.235417  2.55157e-05
0.236458  2.50656e-05
0.237500  2.44200e-05
0.238542  2.36255e-05
0.239583  2.27471e-05
0.240625  2.18590e-05
0.241667  2.10359e-05
0.242708  2.03431e-05
0.243750  1.98289e-05
0.244792  1.95187e-05
0.245833  1.94128e-05
0.246875  1.94865e-05
0.247917  1.96940e-05
0.248958  1.99743e-05
0.250000  2.02592e-05
0.251042  2.04823e-05
0.252083  2.05865e-05
0.253125  2.05313e-05
0.254167  2.02976e-05
0.255208  1.98893e-05
0.256250  1.93321e-05
0.257292  1.86705e-05
0.258333  1.79613e-05
0.259375  1.72665e-05
0.260417  1.66454e-05
0.261458  1.61472e-05
0.262500  1.58053e-05
0.263542  1.56336e-05
0.264583  1.56246e-05
0.265625  1.57513e-05
0.266667  1.59709e-05
0.267708  1.62302e-05
0.268750  1.64725e-05
0.269792  1.66448e-05
0.270833  1.67043e-05
0.271875  1.66232e-05
0.272917  1.63924e-05
0.273958  1.60216e-05
0.275000  1.55382e-05
0.276042  1.49833e-05
0.277083  1.44064e-05
0.278125  1.38591e-05
0.279167  1.33885e-05
0.280208  1.30317e-05
0.281250  1.28111e-05
0.282292  1.27321e-05
0.283333  1.27828e-05
0.284375  1.29356e-05
0.285417  1.31510e-05
0.286458  1.33828e-05
0.287500  1.35839e-05
0.288542  1.37123e-05
0.289583  1.37358e-05
0.290625  1.36364e-05
0.291667  1.34116e-05
0.292708  1.30750e-05
0.293750  1.26540e-05
0.294792  1.21862e-05
0.295833  1.17145e-05
0.296875  1.12817e-05
0.297917  1.09252e-05
0.298958  1.06727e-05
0.300000  1.05383e-05
0.301042  1.05218e-05
0.302083  1.06083e-05
0.303125  1.07707e-05
0.304167  1.09732e-05
0.305208  1.11757e-05
0.306250  1.13393e-05
0.307292  1.14304e-05
0.308333  1.14257e-05
0.309375  1.13138e-05
0.310417  1.10974e-05
0.311458  1.07922e-05
0.312500  1.04246e-05
0.313542  1.00288e-05
0.314583  9.64178e-06
0.315625  9.29910e-06
0.316667  9.03035e-06
0.317708  8.85560e-06
0.318750  8.78307e-06
0.319792  8.80832e-06
0.320833  8.91501e-06
0.321875  9.07713e-06
0.322917  9.26238e-06
0.323958  9.43626e-06
0.325000  9.56643e-06
0.326042  9.62663e-06
0.327083  9.59984e-06
0.328125  9.48027e-06
0.329167  9.27385e-06
0.330208  8.99731e-06
0.331250  8.67594e-06
0.332292  8.34029e-06
0.333333  8.02233e-06
0.334375  7.75142e-06
0.335417  7.55074e-06
0.336458  7.43453e-06
0.337500  7.40641e-06
0.338542  7.45917e-06
0.339583  7.57579e-06
0.340625  7.73170e-06
0.341667  7.89798e-06
0.342708  8.04498e-06
0.343750  8.14602e-06
0.344792  8.18064e-06
0.345833  8.13703e-06
0.346875  8.01337e-06
0.347917  7.81790e-06
0.348958  7.56771e-06
0.350000  7.28654e-06
0.351042  7.00168e-06
0.352083  6.74055e-06
0.353125  6.52732e-06
0.354167  6.37994e-06
0.355208  6.30801e-06
0.356250  6.31173e-06
0.357292  6.38202e-06
0.358333  6.50174e-06
0.359375  6.64800e-06
0.360417  6.79504e-06
0.361458  6.91745e-06
0.362500  6.99336e-06
0.363542  7.00705e-06
0.364583  6.95083e-06
0.365625  6.82587e-06
0.366667  6.64191e-06
0.367708  6.41594e-06
0.368750  6.16998e-06
0.369792  5.92829e-06
0.370833  5.71431e-06
0.371875  5.54779e-06
0.372917  5.44239e-06
0.373958  5.40404e-06
0.375000  5.43039e-06
0.376042  5.51113e-06
0.377083  5.62947e-06
0.378125  5.76423e-06
0.379167  5.89257e-06
0.380208  5.99284e-06
0.381250  6.04724e-06
0.382292  6.04396e-06
0.383333  5.97856e-06
0.384375  5.85442e-06
0.385417  5.68222e-06
0.386458  5.47850e-06
0.387500  5.26354e-06
0.388542  5.05878e-06
0.389583  4.88417e-06
0.390625  4.75571e-06
0.391667  4.68349e-06
0.392708  4.67059e-06
0.393750  4.71273e-06
0.394792  4.79892e-06
0.395833  4.91292e-06
0.396875  5.03533e-06
0.397917  5.14600e-06
0.398958  5.22656e-06
0.400000  5.26267e-06
0.401042  5.24575e-06
0.402083  5.17392e-06
0.403125  5.05221e-06
0.404167  4.89179e-06
0.405208  4.70854e-06
0.406250  4.52097e-06
0.407292  4.34798e-06
0.408333  4.20641e-06
0.409375  4.10908e-06
0.410417  4.06317e-06
0.411458  4.06945e-06
0.412500  4.12227e-06
0.413542  4.21033e-06
0.414583  4.31813e-06
0.415625  4.42798e-06
0.416667  4.52222e-06
0.417708  4.58537e-06
0.418750  4.60603e-06
0.419792  4.57827e-06
0.420833  4.50226e-06
0.421875  4.38419e-06
0.422917  4.23540e-06
0.423958  4.07095e-06
0.425000  3.90768e-06
0.426042  3.76211e-06
0.427083  3.64839e-06
0.428125  3.57660e-06
0.429167  3.55152e-06
0.430208  3.57214e-06
0.431250  3.63181e-06
0.432292  3.71918e-06
0.433333  3.81963e-06
0.434375  3.91715e-06
0.435417  3.99631e-06
0.436458  4.04417e-06
0.437500  4.05186e-06
0.438542  4.01562e-06
0.439583  3.93724e-06
0.440625  3.82368e-06
0.441667  3.68625e-06
0.442708  3.53910e-06
0.443750  3.39742e-06
0.444792  3.27561e-06
0.445833  3.18543e-06
0.446875  3.13463e-06
0.447917  3.12601e-06
0.448958  3.15716e-06
0.450000  3.22078e-06
0.451042  3.30566e-06
0.452083  3.39814e-06
0.453125  3.48379e-06
0.454167  3.54922e-06
0.455208  3.58373e-06
0.456250  3.58061e-06
0.457292  3.53789e-06
0.458333  3.45857e-06
0.459375  3.35017e-06
0.460417  3.22375e-06
0.461458  3.09250e-06
0.462500  2.97006e-06
0.463542  2.86888e-06
0.464583  2.79862e-06
0.465625  2.76507e-06
0.466667  2.76939e-06
0.467708  2.80809e-06
0.468750  2.87345e-06
0.469792  2.95460e-06
0.470833  3.03883e-06
0.471875  3.11323e-06
0.472917  3.16626e-06
0.473958  3.18919e-06
0.475000  3.17712e-06
0.476042  3.12958e-06
0.477083  3.05050e-06
0.478125  2.94770e-06
0.479167  2.83188e-06
0.480208  2.71523e-06
0.481250  2.60995e-06
0.482292  2.52671e-06
0.483333  2.47335e-06
0.484375  2.45395e-06
0.485417  2.46834e-06
0.486458  2.51222e-06
0.487500  2.57768e-06
0.488542  2.65425e-06
0.489583  2.73020e-06
0.490625  2.79405e-06
0.491667  2.83595e-06
0.492708  2.84887e-06
0.493750  2.82949e-06
0.494792  2.77852e-06
0.495833  2.70061e-06
0.496875  2.60371e-06
0.497917  2.49803e-06
0.498958  2.39480e-06
0.500000  2.30484e-06
