# 150608 2014 pa1 instant
# pivot_ell = 1700
# norm_ell = 0
# solid angle = 191.97 nsr
    0  1.00000e+00  1.6492e-02  4.7775e-03  5.3159e-04 -3.4024e-04
    1  9.99967e-01  1.6483e-02  4.7744e-03  5.3118e-04 -3.3982e-04
    2  9.99914e-01  1.6469e-02  4.7693e-03  5.3052e-04 -3.3915e-04
    3  9.99864e-01  1.6455e-02  4.7645e-03  5.2991e-04 -3.3852e-04
    4  9.99812e-01  1.6441e-02  4.7596e-03  5.2928e-04 -3.3787e-04
    5  9.99762e-01  1.6427e-02  4.7548e-03  5.2865e-04 -3.3724e-04
    6  9.99711e-01  1.6413e-02  4.7499e-03  5.2803e-04 -3.3659e-04
    7  9.99660e-01  1.6399e-02  4.7451e-03  5.2740e-04 -3.3596e-04
    8  9.99609e-01  1.6385e-02  4.7402e-03  5.2678e-04 -3.3531e-04
    9  9.99558e-01  1.6371e-02  4.7354e-03  5.2615e-04 -3.3468e-04
   10  9.99507e-01  1.6357e-02  4.7305e-03  5.2553e-04 -3.3404e-04
   11  9.99456e-01  1.6343e-02  4.7257e-03  5.2490e-04 -3.3340e-04
   12  9.99405e-01  1.6329e-02  4.7208e-03  5.2428e-04 -3.3276e-04
   13  9.99354e-01  1.6315e-02  4.7160e-03  5.2366e-04 -3.3213e-04
   14  9.99303e-01  1.6301e-02  4.7112e-03  5.2303e-04 -3.3149e-04
   15  9.99252e-01  1.6287e-02  4.7064e-03  5.2241e-04 -3.3086e-04
   16  9.99201e-01  1.6273e-02  4.7015e-03  5.2179e-04 -3.3022e-04
   17  9.99150e-01  1.6259e-02  4.6967e-03  5.2117e-04 -3.2959e-04
   18  9.99098e-01  1.6246e-02  4.6919e-03  5.2055e-04 -3.2896e-04
   19  9.99047e-01  1.6232e-02  4.6871e-03  5.1993e-04 -3.2832e-04
   20  9.98996e-01  1.6218e-02  4.6822e-03  5.1930e-04 -3.2769e-04
   21  9.98945e-01  1.6204e-02  4.6774e-03  5.1868e-04 -3.2706e-04
   22  9.98894e-01  1.6190e-02  4.6726e-03  5.1806e-04 -3.2643e-04
   23  9.98843e-01  1.6176e-02  4.6678e-03  5.1745e-04 -3.2580e-04
   24  9.98791e-01  1.6162e-02  4.6630e-03  5.1683e-04 -3.2517e-04
   25  9.98740e-01  1.6148e-02  4.6582e-03  5.1621e-04 -3.2454e-04
   26  9.98689e-01  1.6134e-02  4.6534e-03  5.1559e-04 -3.2391e-04
   27  9.98638e-01  1.6121e-02  4.6486e-03  5.1497e-04 -3.2328e-04
   28  9.98587e-01  1.6107e-02  4.6438e-03  5.1436e-04 -3.2265e-04
   29  9.98535e-01  1.6093e-02  4.6390e-03  5.1374e-04 -3.2203e-04
   30  9.98484e-01  1.6079e-02  4.6342e-03  5.1312e-04 -3.2140e-04
   31  9.98433e-01  1.6065e-02  4.6294e-03  5.1251e-04 -3.2077e-04
   32  9.98381e-01  1.6051e-02  4.6246e-03  5.1189e-04 -3.2015e-04
   33  9.98330e-01  1.6037e-02  4.6199e-03  5.1127e-04 -3.1952e-04
   34  9.98279e-01  1.6024e-02  4.6151e-03  5.1066e-04 -3.1890e-04
   35  9.98227e-01  1.6010e-02  4.6103e-03  5.1005e-04 -3.1828e-04
   36  9.98176e-01  1.5996e-02  4.6055e-03  5.0943e-04 -3.1765e-04
   37  9.98124e-01  1.5982e-02  4.6008e-03  5.0882e-04 -3.1703e-04
   38  9.98073e-01  1.5968e-02  4.5960e-03  5.0820e-04 -3.1641e-04
   39  9.98022e-01  1.5955e-02  4.5912e-03  5.0759e-04 -3.1579e-04
   40  9.97970e-01  1.5941e-02  4.5864e-03  5.0698e-04 -3.1517e-04
   41  9.97919e-01  1.5927e-02  4.5817e-03  5.0637e-04 -3.1455e-04
   42  9.97867e-01  1.5913e-02  4.5769e-03  5.0575e-04 -3.1393e-04
   43  9.97816e-01  1.5899e-02  4.5722e-03  5.0514e-04 -3.1331e-04
   44  9.97764e-01  1.5886e-02  4.5674e-03  5.0453e-04 -3.1269e-04
   45  9.97713e-01  1.5872e-02  4.5627e-03  5.0392e-04 -3.1207e-04
   46  9.97661e-01  1.5858e-02  4.5579e-03  5.0331e-04 -3.1145e-04
   47  9.97610e-01  1.5844e-02  4.5532e-03  5.0270e-04 -3.1084e-04
   48  9.97558e-01  1.5830e-02  4.5484e-03  5.0209e-04 -3.1022e-04
   49  9.97507e-01  1.5817e-02  4.5437e-03  5.0148e-04 -3.0960e-04
   50  9.97455e-01  1.5803e-02  4.5389e-03  5.0087e-04 -3.0899e-04
   51  9.97403e-01  1.5789e-02  4.5342e-03  5.0027e-04 -3.0837e-04
   52  9.97352e-01  1.5775e-02  4.5295e-03  4.9966e-04 -3.0776e-04
   53  9.97300e-01  1.5762e-02  4.5247e-03  4.9905e-04 -3.0715e-04
   54  9.97248e-01  1.5748e-02  4.5200e-03  4.9844e-04 -3.0653e-04
   55  9.97197e-01  1.5734e-02  4.5153e-03  4.9784e-04 -3.0592e-04
   56  9.97145e-01  1.5721e-02  4.5105e-03  4.9723e-04 -3.0531e-04
   57  9.97093e-01  1.5707e-02  4.5058e-03  4.9662e-04 -3.0470e-04
   58  9.97042e-01  1.5693e-02  4.5011e-03  4.9602e-04 -3.0409e-04
   59  9.96990e-01  1.5679e-02  4.4964e-03  4.9541e-04 -3.0348e-04
   60  9.96938e-01  1.5666e-02  4.4917e-03  4.9481e-04 -3.0287e-04
   61  9.96887e-01  1.5652e-02  4.4870e-03  4.9420e-04 -3.0226e-04
   62  9.96835e-01  1.5638e-02  4.4823e-03  4.9360e-04 -3.0165e-04
   63  9.96783e-01  1.5625e-02  4.4775e-03  4.9300e-04 -3.0104e-04
   64  9.96731e-01  1.5611e-02  4.4728e-03  4.9239e-04 -3.0044e-04
   65  9.96679e-01  1.5597e-02  4.4681e-03  4.9179e-04 -2.9983e-04
   66  9.96627e-01  1.5584e-02  4.4634e-03  4.9119e-04 -2.9923e-04
   67  9.96576e-01  1.5570e-02  4.4587e-03  4.9059e-04 -2.9862e-04
   68  9.96524e-01  1.5556e-02  4.4540e-03  4.8999e-04 -2.9801e-04
   69  9.96472e-01  1.5543e-02  4.4494e-03  4.8938e-04 -2.9741e-04
   70  9.96420e-01  1.5529e-02  4.4447e-03  4.8878e-04 -2.9681e-04
   71  9.96368e-01  1.5515e-02  4.4400e-03  4.8818e-04 -2.9620e-04
   72  9.96316e-01  1.5502e-02  4.4353e-03  4.8758e-04 -2.9560e-04
   73  9.96264e-01  1.5488e-02  4.4306e-03  4.8698e-04 -2.9500e-04
   74  9.96212e-01  1.5475e-02  4.4259e-03  4.8638e-04 -2.9440e-04
   75  9.96160e-01  1.5461e-02  4.4213e-03  4.8579e-04 -2.9380e-04
   76  9.96108e-01  1.5447e-02  4.4166e-03  4.8519e-04 -2.9320e-04
   77  9.96056e-01  1.5434e-02  4.4119e-03  4.8459e-04 -2.9260e-04
   78  9.96004e-01  1.5420e-02  4.4072e-03  4.8399e-04 -2.9200e-04
   79  9.95952e-01  1.5407e-02  4.4026e-03  4.8339e-04 -2.9140e-04
   80  9.95900e-01  1.5393e-02  4.3979e-03  4.8280e-04 -2.9080e-04
   81  9.95848e-01  1.5379e-02  4.3933e-03  4.8220e-04 -2.9020e-04
   82  9.95796e-01  1.5366e-02  4.3886e-03  4.8160e-04 -2.8961e-04
   83  9.95744e-01  1.5352e-02  4.3839e-03  4.8101e-04 -2.8901e-04
   84  9.95692e-01  1.5339e-02  4.3793e-03  4.8041e-04 -2.8841e-04
   85  9.95640e-01  1.5325e-02  4.3746e-03  4.7982e-04 -2.8782e-04
   86  9.95588e-01  1.5312e-02  4.3700e-03  4.7922e-04 -2.8723e-04
   87  9.95536e-01  1.5298e-02  4.3653e-03  4.7863e-04 -2.8663e-04
   88  9.95483e-01  1.5284e-02  4.3607e-03  4.7804e-04 -2.8604e-04
   89  9.95431e-01  1.5271e-02  4.3561e-03  4.7744e-04 -2.8544e-04
   90  9.95379e-01  1.5257e-02  4.3514e-03  4.7685e-04 -2.8485e-04
   91  9.95327e-01  1.5244e-02  4.3468e-03  4.7626e-04 -2.8426e-04
   92  9.95275e-01  1.5230e-02  4.3422e-03  4.7566e-04 -2.8367e-04
   93  9.95222e-01  1.5217e-02  4.3375e-03  4.7507e-04 -2.8308e-04
   94  9.95170e-01  1.5203e-02  4.3329e-03  4.7448e-04 -2.8249e-04
   95  9.95118e-01  1.5190e-02  4.3283e-03  4.7389e-04 -2.8190e-04
   96  9.95066e-01  1.5176e-02  4.3236e-03  4.7330e-04 -2.8131e-04
   97  9.95013e-01  1.5163e-02  4.3190e-03  4.7271e-04 -2.8072e-04
   98  9.94961e-01  1.5149e-02  4.3144e-03  4.7212e-04 -2.8013e-04
   99  9.94909e-01  1.5136e-02  4.3098e-03  4.7153e-04 -2.7955e-04
  100  9.94856e-01  1.5122e-02  4.3052e-03  4.7094e-04 -2.7896e-04
  101  9.94804e-01  1.5109e-02  4.3006e-03  4.7035e-04 -2.7838e-04
  102  9.94752e-01  1.5095e-02  4.2960e-03  4.6976e-04 -2.7779e-04
  103  9.94699e-01  1.5082e-02  4.2914e-03  4.6918e-04 -2.7720e-04
  104  9.94647e-01  1.5068e-02  4.2868e-03  4.6859e-04 -2.7662e-04
  105  9.94595e-01  1.5055e-02  4.2822e-03  4.6800e-04 -2.7604e-04
  106  9.94542e-01  1.5041e-02  4.2776e-03  4.6742e-04 -2.7545e-04
  107  9.94490e-01  1.5028e-02  4.2730e-03  4.6683e-04 -2.7487e-04
  108  9.94437e-01  1.5015e-02  4.2684e-03  4.6624e-04 -2.7429e-04
  109  9.94385e-01  1.5001e-02  4.2638e-03  4.6566e-04 -2.7371e-04
  110  9.94332e-01  1.4988e-02  4.2592e-03  4.6507e-04 -2.7313e-04
  111  9.94280e-01  1.4974e-02  4.2546e-03  4.6449e-04 -2.7255e-04
  112  9.94227e-01  1.4961e-02  4.2500e-03  4.6390e-04 -2.7197e-04
  113  9.94175e-01  1.4947e-02  4.2454e-03  4.6332e-04 -2.7139e-04
  114  9.94122e-01  1.4934e-02  4.2409e-03  4.6274e-04 -2.7081e-04
  115  9.94070e-01  1.4921e-02  4.2363e-03  4.6215e-04 -2.7023e-04
  116  9.94017e-01  1.4907e-02  4.2317e-03  4.6157e-04 -2.6965e-04
  117  9.93964e-01  1.4894e-02  4.2272e-03  4.6099e-04 -2.6908e-04
  118  9.93912e-01  1.4880e-02  4.2226e-03  4.6041e-04 -2.6850e-04
  119  9.93859e-01  1.4867e-02  4.2180e-03  4.5982e-04 -2.6792e-04
  120  9.93807e-01  1.4854e-02  4.2135e-03  4.5924e-04 -2.6735e-04
  121  9.93754e-01  1.4840e-02  4.2089e-03  4.5866e-04 -2.6677e-04
  122  9.93701e-01  1.4827e-02  4.2043e-03  4.5808e-04 -2.6620e-04
  123  9.93649e-01  1.4813e-02  4.1998e-03  4.5750e-04 -2.6563e-04
  124  9.93596e-01  1.4800e-02  4.1952e-03  4.5692e-04 -2.6505e-04
  125  9.93543e-01  1.4787e-02  4.1907e-03  4.5634e-04 -2.6448e-04
  126  9.93490e-01  1.4773e-02  4.1861e-03  4.5576e-04 -2.6391e-04
  127  9.93438e-01  1.4760e-02  4.1816e-03  4.5519e-04 -2.6334e-04
  128  9.93385e-01  1.4747e-02  4.1771e-03  4.5461e-04 -2.6277e-04
  129  9.93332e-01  1.4733e-02  4.1725e-03  4.5403e-04 -2.6220e-04
  130  9.93279e-01  1.4720e-02  4.1680e-03  4.5345e-04 -2.6163e-04
  131  9.93227e-01  1.4707e-02  4.1634e-03  4.5288e-04 -2.6106e-04
  132  9.93174e-01  1.4693e-02  4.1589e-03  4.5230e-04 -2.6049e-04
  133  9.93121e-01  1.4680e-02  4.1544e-03  4.5172e-04 -2.5992e-04
  134  9.93068e-01  1.4667e-02  4.1499e-03  4.5115e-04 -2.5936e-04
  135  9.93015e-01  1.4654e-02  4.1453e-03  4.5057e-04 -2.5879e-04
  136  9.92962e-01  1.4640e-02  4.1408e-03  4.5000e-04 -2.5822e-04
  137  9.92909e-01  1.4627e-02  4.1363e-03  4.4942e-04 -2.5766e-04
  138  9.92857e-01  1.4614e-02  4.1318e-03  4.4885e-04 -2.5709e-04
  139  9.92804e-01  1.4600e-02  4.1273e-03  4.4828e-04 -2.5653e-04
  140  9.92751e-01  1.4587e-02  4.1228e-03  4.4770e-04 -2.5596e-04
  141  9.92698e-01  1.4574e-02  4.1182e-03  4.4713e-04 -2.5540e-04
  142  9.92645e-01  1.4561e-02  4.1137e-03  4.4656e-04 -2.5484e-04
  143  9.92592e-01  1.4547e-02  4.1092e-03  4.4598e-04 -2.5428e-04
  144  9.92539e-01  1.4534e-02  4.1047e-03  4.4541e-04 -2.5371e-04
  145  9.92486e-01  1.4521e-02  4.1002e-03  4.4484e-04 -2.5315e-04
  146  9.92433e-01  1.4508e-02  4.0957e-03  4.4427e-04 -2.5259e-04
  147  9.92380e-01  1.4494e-02  4.0912e-03  4.4370e-04 -2.5203e-04
  148  9.92327e-01  1.4481e-02  4.0868e-03  4.4313e-04 -2.5147e-04
  149  9.92274e-01  1.4468e-02  4.0823e-03  4.4256e-04 -2.5092e-04
  150  9.92221e-01  1.4455e-02  4.0778e-03  4.4199e-04 -2.5036e-04
  151  9.92167e-01  1.4441e-02  4.0733e-03  4.4142e-04 -2.4980e-04
  152  9.92114e-01  1.4428e-02  4.0688e-03  4.4085e-04 -2.4924e-04
  153  9.92061e-01  1.4415e-02  4.0643e-03  4.4028e-04 -2.4869e-04
  154  9.92008e-01  1.4402e-02  4.0599e-03  4.3972e-04 -2.4813e-04
  155  9.91955e-01  1.4389e-02  4.0554e-03  4.3915e-04 -2.4758e-04
  156  9.91902e-01  1.4375e-02  4.0509e-03  4.3858e-04 -2.4702e-04
  157  9.91849e-01  1.4362e-02  4.0465e-03  4.3802e-04 -2.4647e-04
  158  9.91795e-01  1.4349e-02  4.0420e-03  4.3745e-04 -2.4591e-04
  159  9.91742e-01  1.4336e-02  4.0375e-03  4.3688e-04 -2.4536e-04
  160  9.91689e-01  1.4323e-02  4.0331e-03  4.3632e-04 -2.4481e-04
  161  9.91636e-01  1.4309e-02  4.0286e-03  4.3575e-04 -2.4426e-04
  162  9.91582e-01  1.4296e-02  4.0242e-03  4.3519e-04 -2.4370e-04
  163  9.91529e-01  1.4283e-02  4.0197e-03  4.3462e-04 -2.4315e-04
  164  9.91476e-01  1.4270e-02  4.0153e-03  4.3406e-04 -2.4260e-04
  165  9.91422e-01  1.4257e-02  4.0108e-03  4.3350e-04 -2.4205e-04
  166  9.91369e-01  1.4244e-02  4.0064e-03  4.3293e-04 -2.4150e-04
  167  9.91316e-01  1.4231e-02  4.0019e-03  4.3237e-04 -2.4096e-04
  168  9.91262e-01  1.4217e-02  3.9975e-03  4.3181e-04 -2.4041e-04
  169  9.91209e-01  1.4204e-02  3.9930e-03  4.3125e-04 -2.3986e-04
  170  9.91156e-01  1.4191e-02  3.9886e-03  4.3068e-04 -2.3931e-04
  171  9.91102e-01  1.4178e-02  3.9842e-03  4.3012e-04 -2.3877e-04
  172  9.91049e-01  1.4165e-02  3.9797e-03  4.2956e-04 -2.3822e-04
  173  9.90995e-01  1.4152e-02  3.9753e-03  4.2900e-04 -2.3768e-04
  174  9.90942e-01  1.4139e-02  3.9709e-03  4.2844e-04 -2.3713e-04
  175  9.90889e-01  1.4126e-02  3.9665e-03  4.2788e-04 -2.3659e-04
  176  9.90835e-01  1.4113e-02  3.9620e-03  4.2732e-04 -2.3605e-04
  177  9.90782e-01  1.4100e-02  3.9576e-03  4.2676e-04 -2.3550e-04
  178  9.90728e-01  1.4086e-02  3.9532e-03  4.2621e-04 -2.3496e-04
  179  9.90675e-01  1.4073e-02  3.9488e-03  4.2565e-04 -2.3442e-04
  180  9.90621e-01  1.4060e-02  3.9444e-03  4.2509e-04 -2.3388e-04
  181  9.90568e-01  1.4047e-02  3.9400e-03  4.2453e-04 -2.3334e-04
  182  9.90514e-01  1.4034e-02  3.9356e-03  4.2398e-04 -2.3280e-04
  183  9.90460e-01  1.4021e-02  3.9312e-03  4.2342e-04 -2.3226e-04
  184  9.90407e-01  1.4008e-02  3.9268e-03  4.2286e-04 -2.3172e-04
  185  9.90353e-01  1.3995e-02  3.9224e-03  4.2231e-04 -2.3118e-04
  186  9.90300e-01  1.3982e-02  3.9180e-03  4.2175e-04 -2.3064e-04
  187  9.90246e-01  1.3969e-02  3.9136e-03  4.2120e-04 -2.3011e-04
  188  9.90192e-01  1.3956e-02  3.9092e-03  4.2064e-04 -2.2957e-04
  189  9.90139e-01  1.3943e-02  3.9048e-03  4.2009e-04 -2.2903e-04
  190  9.90085e-01  1.3930e-02  3.9004e-03  4.1953e-04 -2.2850e-04
  191  9.90031e-01  1.3917e-02  3.8961e-03  4.1898e-04 -2.2796e-04
  192  9.89978e-01  1.3904e-02  3.8917e-03  4.1843e-04 -2.2743e-04
  193  9.89924e-01  1.3891e-02  3.8873e-03  4.1788e-04 -2.2690e-04
  194  9.89870e-01  1.3878e-02  3.8829e-03  4.1732e-04 -2.2636e-04
  195  9.89816e-01  1.3865e-02  3.8786e-03  4.1677e-04 -2.2583e-04
  196  9.89763e-01  1.3852e-02  3.8742e-03  4.1622e-04 -2.2530e-04
  197  9.89709e-01  1.3839e-02  3.8698e-03  4.1567e-04 -2.2477e-04
  198  9.89655e-01  1.3826e-02  3.8655e-03  4.1512e-04 -2.2424e-04
  199  9.89601e-01  1.3813e-02  3.8611e-03  4.1457e-04 -2.2371e-04
  200  9.89547e-01  1.3800e-02  3.8567e-03  4.1402e-04 -2.2318e-04
  201  9.89494e-01  1.3787e-02  3.8524e-03  4.1347e-04 -2.2265e-04
  202  9.89440e-01  1.3774e-02  3.8480e-03  4.1292e-04 -2.2212e-04
  203  9.89386e-01  1.3761e-02  3.8437e-03  4.1237e-04 -2.2159e-04
  204  9.89332e-01  1.3748e-02  3.8393e-03  4.1182e-04 -2.2106e-04
  205  9.89278e-01  1.3735e-02  3.8350e-03  4.1128e-04 -2.2054e-04
  206  9.89224e-01  1.3722e-02  3.8306e-03  4.1073e-04 -2.2001e-04
  207  9.89170e-01  1.3710e-02  3.8263e-03  4.1018e-04 -2.1948e-04
  208  9.89116e-01  1.3697e-02  3.8220e-03  4.0963e-04 -2.1896e-04
  209  9.89062e-01  1.3684e-02  3.8176e-03  4.0909e-04 -2.1843e-04
  210  9.89008e-01  1.3671e-02  3.8133e-03  4.0854e-04 -2.1791e-04
  211  9.88954e-01  1.3658e-02  3.8090e-03  4.0800e-04 -2.1739e-04
  212  9.88900e-01  1.3645e-02  3.8046e-03  4.0745e-04 -2.1686e-04
  213  9.88846e-01  1.3632e-02  3.8003e-03  4.0691e-04 -2.1634e-04
  214  9.88792e-01  1.3619e-02  3.7960e-03  4.0636e-04 -2.1582e-04
  215  9.88738e-01  1.3606e-02  3.7917e-03  4.0582e-04 -2.1530e-04
  216  9.88684e-01  1.3593e-02  3.7873e-03  4.0527e-04 -2.1478e-04
  217  9.88630e-01  1.3581e-02  3.7830e-03  4.0473e-04 -2.1426e-04
  218  9.88576e-01  1.3568e-02  3.7787e-03  4.0419e-04 -2.1374e-04
  219  9.88522e-01  1.3555e-02  3.7744e-03  4.0365e-04 -2.1322e-04
  220  9.88468e-01  1.3542e-02  3.7701e-03  4.0310e-04 -2.1270e-04
  221  9.88414e-01  1.3529e-02  3.7658e-03  4.0256e-04 -2.1218e-04
  222  9.88359e-01  1.3516e-02  3.7615e-03  4.0202e-04 -2.1166e-04
  223  9.88305e-01  1.3503e-02  3.7572e-03  4.0148e-04 -2.1115e-04
  224  9.88251e-01  1.3491e-02  3.7529e-03  4.0094e-04 -2.1063e-04
  225  9.88197e-01  1.3478e-02  3.7486e-03  4.0040e-04 -2.1012e-04
  226  9.88143e-01  1.3465e-02  3.7443e-03  3.9986e-04 -2.0960e-04
  227  9.88088e-01  1.3452e-02  3.7400e-03  3.9932e-04 -2.0909e-04
  228  9.88034e-01  1.3439e-02  3.7357e-03  3.9878e-04 -2.0857e-04
  229  9.87980e-01  1.3427e-02  3.7314e-03  3.9824e-04 -2.0806e-04
  230  9.87926e-01  1.3414e-02  3.7272e-03  3.9770e-04 -2.0755e-04
  231  9.87871e-01  1.3401e-02  3.7229e-03  3.9717e-04 -2.0703e-04
  232  9.87817e-01  1.3388e-02  3.7186e-03  3.9663e-04 -2.0652e-04
  233  9.87763e-01  1.3375e-02  3.7143e-03  3.9609e-04 -2.0601e-04
  234  9.87708e-01  1.3363e-02  3.7101e-03  3.9556e-04 -2.0550e-04
  235  9.87654e-01  1.3350e-02  3.7058e-03  3.9502e-04 -2.0499e-04
  236  9.87600e-01  1.3337e-02  3.7015e-03  3.9448e-04 -2.0448e-04
  237  9.87545e-01  1.3324e-02  3.6972e-03  3.9395e-04 -2.0397e-04
  238  9.87491e-01  1.3311e-02  3.6930e-03  3.9341e-04 -2.0346e-04
  239  9.87436e-01  1.3299e-02  3.6887e-03  3.9288e-04 -2.0296e-04
  240  9.87382e-01  1.3286e-02  3.6845e-03  3.9235e-04 -2.0245e-04
  241  9.87328e-01  1.3273e-02  3.6802e-03  3.9181e-04 -2.0194e-04
  242  9.87273e-01  1.3260e-02  3.6760e-03  3.9128e-04 -2.0144e-04
  243  9.87219e-01  1.3248e-02  3.6717e-03  3.9074e-04 -2.0093e-04
  244  9.87164e-01  1.3235e-02  3.6675e-03  3.9021e-04 -2.0043e-04
  245  9.87110e-01  1.3222e-02  3.6632e-03  3.8968e-04 -1.9992e-04
  246  9.87055e-01  1.3210e-02  3.6590e-03  3.8915e-04 -1.9942e-04
  247  9.87001e-01  1.3197e-02  3.6547e-03  3.8862e-04 -1.9892e-04
  248  9.86946e-01  1.3184e-02  3.6505e-03  3.8809e-04 -1.9841e-04
  249  9.86892e-01  1.3171e-02  3.6463e-03  3.8755e-04 -1.9791e-04
  250  9.86837e-01  1.3159e-02  3.6420e-03  3.8702e-04 -1.9741e-04
  251  9.86782e-01  1.3146e-02  3.6378e-03  3.8649e-04 -1.9691e-04
  252  9.86728e-01  1.3133e-02  3.6336e-03  3.8596e-04 -1.9641e-04
  253  9.86673e-01  1.3121e-02  3.6294e-03  3.8544e-04 -1.9591e-04
  254  9.86619e-01  1.3108e-02  3.6251e-03  3.8491e-04 -1.9541e-04
  255  9.86564e-01  1.3095e-02  3.6209e-03  3.8438e-04 -1.9491e-04
  256  9.86509e-01  1.3083e-02  3.6167e-03  3.8385e-04 -1.9441e-04
  257  9.86455e-01  1.3070e-02  3.6125e-03  3.8332e-04 -1.9392e-04
  258  9.86400e-01  1.3057e-02  3.6083e-03  3.8280e-04 -1.9342e-04
  259  9.86345e-01  1.3045e-02  3.6041e-03  3.8227e-04 -1.9292e-04
  260  9.86290e-01  1.3032e-02  3.5999e-03  3.8174e-04 -1.9243e-04
  261  9.86236e-01  1.3019e-02  3.5956e-03  3.8122e-04 -1.9193e-04
  262  9.86181e-01  1.3007e-02  3.5914e-03  3.8069e-04 -1.9144e-04
  263  9.86126e-01  1.2994e-02  3.5872e-03  3.8017e-04 -1.9094e-04
  264  9.86071e-01  1.2981e-02  3.5831e-03  3.7964e-04 -1.9045e-04
  265  9.86017e-01  1.2969e-02  3.5789e-03  3.7912e-04 -1.8996e-04
  266  9.85962e-01  1.2956e-02  3.5747e-03  3.7859e-04 -1.8946e-04
  267  9.85907e-01  1.2944e-02  3.5705e-03  3.7807e-04 -1.8897e-04
  268  9.85852e-01  1.2931e-02  3.5663e-03  3.7755e-04 -1.8848e-04
  269  9.85797e-01  1.2918e-02  3.5621e-03  3.7702e-04 -1.8799e-04
  270  9.85742e-01  1.2906e-02  3.5579e-03  3.7650e-04 -1.8750e-04
  271  9.85688e-01  1.2893e-02  3.5537e-03  3.7598e-04 -1.8701e-04
  272  9.85633e-01  1.2881e-02  3.5496e-03  3.7546e-04 -1.8652e-04
  273  9.85578e-01  1.2868e-02  3.5454e-03  3.7493e-04 -1.8603e-04
  274  9.85523e-01  1.2855e-02  3.5412e-03  3.7441e-04 -1.8554e-04
  275  9.85468e-01  1.2843e-02  3.5371e-03  3.7389e-04 -1.8506e-04
  276  9.85413e-01  1.2830e-02  3.5329e-03  3.7337e-04 -1.8457e-04
  277  9.85358e-01  1.2818e-02  3.5287e-03  3.7285e-04 -1.8408e-04
  278  9.85303e-01  1.2805e-02  3.5246e-03  3.7233e-04 -1.8360e-04
  279  9.85248e-01  1.2793e-02  3.5204e-03  3.7181e-04 -1.8311e-04
  280  9.85193e-01  1.2780e-02  3.5162e-03  3.7130e-04 -1.8263e-04
  281  9.85138e-01  1.2768e-02  3.5121e-03  3.7078e-04 -1.8214e-04
  282  9.85083e-01  1.2755e-02  3.5079e-03  3.7026e-04 -1.8166e-04
  283  9.85028e-01  1.2743e-02  3.5038e-03  3.6974e-04 -1.8118e-04
  284  9.84973e-01  1.2730e-02  3.4996e-03  3.6923e-04 -1.8070e-04
  285  9.84918e-01  1.2718e-02  3.4955e-03  3.6871e-04 -1.8021e-04
  286  9.84862e-01  1.2705e-02  3.4914e-03  3.6819e-04 -1.7973e-04
  287  9.84807e-01  1.2692e-02  3.4872e-03  3.6768e-04 -1.7925e-04
  288  9.84752e-01  1.2680e-02  3.4831e-03  3.6716e-04 -1.7877e-04
  289  9.84697e-01  1.2667e-02  3.4790e-03  3.6665e-04 -1.7829e-04
  290  9.84642e-01  1.2655e-02  3.4748e-03  3.6613e-04 -1.7781e-04
  291  9.84587e-01  1.2643e-02  3.4707e-03  3.6562e-04 -1.7734e-04
  292  9.84532e-01  1.2630e-02  3.4666e-03  3.6510e-04 -1.7686e-04
  293  9.84476e-01  1.2618e-02  3.4624e-03  3.6459e-04 -1.7638e-04
  294  9.84421e-01  1.2605e-02  3.4583e-03  3.6408e-04 -1.7590e-04
  295  9.84366e-01  1.2593e-02  3.4542e-03  3.6356e-04 -1.7543e-04
  296  9.84311e-01  1.2580e-02  3.4501e-03  3.6305e-04 -1.7495e-04
