#  pivot_ell = 1700
#  norm_ell = 0
#  solid angle = 202.91 nsr
0 1.000000e+00 3.662673e-02
1 9.999384e-01 3.660757e-02
2 9.998388e-01 3.657660e-02
3 9.997457e-01 3.654764e-02
4 9.996495e-01 3.651773e-02
5 9.995552e-01 3.648842e-02
6 9.994595e-01 3.645872e-02
7 9.993649e-01 3.642932e-02
8 9.992695e-01 3.639970e-02
9 9.991747e-01 3.637028e-02
10 9.990794e-01 3.634071e-02
11 9.989846e-01 3.631128e-02
12 9.988894e-01 3.628175e-02
13 9.987945e-01 3.625233e-02
14 9.986993e-01 3.622283e-02
15 9.986044e-01 3.619342e-02
16 9.985093e-01 3.616394e-02
17 9.984144e-01 3.613454e-02
18 9.983193e-01 3.610510e-02
19 9.982244e-01 3.607571e-02
20 9.981293e-01 3.604629e-02
21 9.980344e-01 3.601692e-02
22 9.979394e-01 3.598752e-02
23 9.978444e-01 3.595816e-02
24 9.977494e-01 3.592878e-02
25 9.976545e-01 3.589945e-02
26 9.975595e-01 3.587009e-02
27 9.974646e-01 3.584077e-02
28 9.973696e-01 3.581144e-02
29 9.972747e-01 3.578214e-02
30 9.971797e-01 3.575282e-02
31 9.970848e-01 3.572354e-02
32 9.969898e-01 3.569424e-02
33 9.968949e-01 3.566498e-02
34 9.968000e-01 3.563570e-02
35 9.967051e-01 3.560646e-02
36 9.966101e-01 3.557720e-02
37 9.965153e-01 3.554798e-02
38 9.964203e-01 3.551874e-02
39 9.963255e-01 3.548953e-02
40 9.962305e-01 3.546032e-02
41 9.961357e-01 3.543113e-02
42 9.960408e-01 3.540193e-02
43 9.959459e-01 3.537276e-02
44 9.958510e-01 3.534359e-02
45 9.957562e-01 3.531444e-02
46 9.956613e-01 3.528528e-02
47 9.955665e-01 3.525615e-02
48 9.954716e-01 3.522701e-02
49 9.953768e-01 3.519790e-02
50 9.952819e-01 3.516878e-02
51 9.951871e-01 3.513969e-02
52 9.950923e-01 3.511059e-02
53 9.949975e-01 3.508152e-02
54 9.949026e-01 3.505244e-02
55 9.948078e-01 3.502338e-02
56 9.947130e-01 3.499433e-02
57 9.946182e-01 3.496529e-02
58 9.945234e-01 3.493625e-02
59 9.944286e-01 3.490724e-02
60 9.943338e-01 3.487822e-02
61 9.942391e-01 3.484922e-02
62 9.941443e-01 3.482022e-02
63 9.940495e-01 3.479124e-02
64 9.939548e-01 3.476226e-02
65 9.938600e-01 3.473330e-02
66 9.937652e-01 3.470434e-02
67 9.936705e-01 3.467540e-02
68 9.935758e-01 3.464646e-02
69 9.934810e-01 3.461754e-02
70 9.933863e-01 3.458862e-02
71 9.932916e-01 3.455972e-02
72 9.931968e-01 3.453082e-02
73 9.931021e-01 3.450193e-02
74 9.930074e-01 3.447305e-02
75 9.929127e-01 3.444419e-02
76 9.928180e-01 3.441533e-02
77 9.927233e-01 3.438648e-02
78 9.926286e-01 3.435764e-02
79 9.925339e-01 3.432881e-02
80 9.924393e-01 3.429999e-02
81 9.923446e-01 3.427118e-02
82 9.922499e-01 3.424238e-02
83 9.921553e-01 3.421359e-02
84 9.920606e-01 3.418481e-02
85 9.919659e-01 3.415604e-02
86 9.918713e-01 3.412728e-02
87 9.917766e-01 3.409853e-02
88 9.916820e-01 3.406979e-02
89 9.915874e-01 3.404106e-02
90 9.914927e-01 3.401233e-02
91 9.913981e-01 3.398362e-02
92 9.913035e-01 3.395492e-02
93 9.912089e-01 3.392622e-02
94 9.911143e-01 3.389754e-02
95 9.910197e-01 3.386887e-02
96 9.909251e-01 3.384020e-02
97 9.908305e-01 3.381155e-02
98 9.907359e-01 3.378290e-02
99 9.906413e-01 3.375427e-02
100 9.905468e-01 3.372564e-02
101 9.904522e-01 3.369702e-02
102 9.903576e-01 3.366842e-02
103 9.902631e-01 3.363982e-02
104 9.901685e-01 3.361123e-02
105 9.900740e-01 3.358266e-02
106 9.899794e-01 3.355409e-02
107 9.898849e-01 3.352553e-02
108 9.897904e-01 3.349698e-02
109 9.896958e-01 3.346845e-02
110 9.896013e-01 3.343992e-02
111 9.895068e-01 3.341140e-02
112 9.894123e-01 3.338289e-02
113 9.893178e-01 3.335439e-02
114 9.892233e-01 3.332590e-02
115 9.891288e-01 3.329742e-02
116 9.890343e-01 3.326895e-02
117 9.889398e-01 3.324049e-02
118 9.888453e-01 3.321203e-02
119 9.887509e-01 3.318359e-02
120 9.886564e-01 3.315516e-02
121 9.885619e-01 3.312674e-02
122 9.884675e-01 3.309832e-02
123 9.883730e-01 3.306992e-02
124 9.882786e-01 3.304153e-02
125 9.881841e-01 3.301315e-02
126 9.880897e-01 3.298477e-02
127 9.879952e-01 3.295641e-02
128 9.879008e-01 3.292805e-02
129 9.878064e-01 3.289971e-02
130 9.877120e-01 3.287137e-02
131 9.876176e-01 3.284305e-02
132 9.875232e-01 3.281473e-02
133 9.874288e-01 3.278643e-02
134 9.873344e-01 3.275813e-02
135 9.872400e-01 3.272984e-02
136 9.871456e-01 3.270156e-02
137 9.870512e-01 3.267330e-02
138 9.869568e-01 3.264504e-02
139 9.868625e-01 3.261679e-02
140 9.867681e-01 3.258855e-02
141 9.866737e-01 3.256033e-02
142 9.865794e-01 3.253211e-02
143 9.864850e-01 3.250390e-02
144 9.863907e-01 3.247570e-02
145 9.862964e-01 3.244751e-02
146 9.862020e-01 3.241933e-02
147 9.861077e-01 3.239116e-02
148 9.860134e-01 3.236299e-02
149 9.859191e-01 3.233484e-02
150 9.858247e-01 3.230670e-02
151 9.857304e-01 3.227857e-02
152 9.856361e-01 3.225045e-02
153 9.855418e-01 3.222234e-02
154 9.854475e-01 3.219423e-02
155 9.853533e-01 3.216614e-02
156 9.852590e-01 3.213805e-02
157 9.851647e-01 3.210998e-02
158 9.850704e-01 3.208192e-02
159 9.849762e-01 3.205386e-02
160 9.848819e-01 3.202582e-02
161 9.847877e-01 3.199778e-02
162 9.846934e-01 3.196976e-02
163 9.845992e-01 3.194174e-02
164 9.845049e-01 3.191373e-02
165 9.844107e-01 3.188574e-02
166 9.843165e-01 3.185775e-02
167 9.842222e-01 3.182978e-02
168 9.841280e-01 3.180181e-02
169 9.840338e-01 3.177385e-02
170 9.839396e-01 3.174590e-02
171 9.838454e-01 3.171796e-02
172 9.837512e-01 3.169003e-02
173 9.836570e-01 3.166212e-02
174 9.835628e-01 3.163421e-02
175 9.834687e-01 3.160631e-02
176 9.833745e-01 3.157842e-02
177 9.832803e-01 3.155054e-02
178 9.831861e-01 3.152266e-02
179 9.830920e-01 3.149480e-02
180 9.829978e-01 3.146695e-02
181 9.829037e-01 3.143911e-02
182 9.828095e-01 3.141128e-02
183 9.827154e-01 3.138346e-02
184 9.826213e-01 3.135564e-02
185 9.825271e-01 3.132784e-02
186 9.824330e-01 3.130005e-02
187 9.823389e-01 3.127226e-02
188 9.822448e-01 3.124449e-02
189 9.821507e-01 3.121673e-02
190 9.820566e-01 3.118897e-02
191 9.819625e-01 3.116123e-02
192 9.818684e-01 3.113349e-02
193 9.817743e-01 3.110577e-02
194 9.816802e-01 3.107805e-02
195 9.815861e-01 3.105034e-02
196 9.814921e-01 3.102265e-02
197 9.813980e-01 3.099496e-02
198 9.813039e-01 3.096728e-02
199 9.812099e-01 3.093961e-02
200 9.811158e-01 3.091196e-02
201 9.810218e-01 3.088431e-02
202 9.809278e-01 3.085667e-02
203 9.808337e-01 3.082904e-02
204 9.807397e-01 3.080142e-02
205 9.806457e-01 3.077381e-02
206 9.805517e-01 3.074621e-02
207 9.804576e-01 3.071862e-02
208 9.803636e-01 3.069104e-02
209 9.802696e-01 3.066347e-02
210 9.801756e-01 3.063591e-02
211 9.800816e-01 3.060836e-02
212 9.799877e-01 3.058082e-02
213 9.798937e-01 3.055328e-02
214 9.797997e-01 3.052576e-02
215 9.797057e-01 3.049825e-02
216 9.796118e-01 3.047074e-02
217 9.795178e-01 3.044325e-02
218 9.794239e-01 3.041577e-02
219 9.793299e-01 3.038829e-02
220 9.792360e-01 3.036083e-02
221 9.791420e-01 3.033337e-02
222 9.790481e-01 3.030593e-02
223 9.789542e-01 3.027849e-02
224 9.788602e-01 3.025107e-02
225 9.787663e-01 3.022365e-02
226 9.786724e-01 3.019624e-02
227 9.785785e-01 3.016885e-02
228 9.784846e-01 3.014146e-02
229 9.783907e-01 3.011408e-02
230 9.782968e-01 3.008671e-02
231 9.782029e-01 3.005936e-02
232 9.781090e-01 3.003201e-02
233 9.780152e-01 3.000467e-02
234 9.779213e-01 2.997734e-02
235 9.778274e-01 2.995002e-02
236 9.777336e-01 2.992271e-02
237 9.776397e-01 2.989541e-02
238 9.775459e-01 2.986812e-02
239 9.774520e-01 2.984084e-02
240 9.773582e-01 2.981357e-02
241 9.772643e-01 2.978630e-02
242 9.771705e-01 2.975905e-02
243 9.770767e-01 2.973181e-02
244 9.769829e-01 2.970458e-02
245 9.768890e-01 2.967735e-02
246 9.767952e-01 2.965014e-02
247 9.767014e-01 2.962294e-02
248 9.766076e-01 2.959574e-02
249 9.765138e-01 2.956856e-02
250 9.764201e-01 2.954138e-02
251 9.763263e-01 2.951422e-02
252 9.762325e-01 2.948706e-02
253 9.761387e-01 2.945992e-02
254 9.760450e-01 2.943278e-02
255 9.759512e-01 2.940565e-02
256 9.758574e-01 2.937854e-02
257 9.757637e-01 2.935143e-02
258 9.756699e-01 2.932433e-02
259 9.755762e-01 2.929725e-02
260 9.754825e-01 2.927017e-02
261 9.753887e-01 2.924310e-02
262 9.752950e-01 2.921604e-02
263 9.752013e-01 2.918899e-02
264 9.751076e-01 2.916195e-02
265 9.750139e-01 2.913492e-02
266 9.749202e-01 2.910790e-02
267 9.748265e-01 2.908089e-02
268 9.747328e-01 2.905389e-02
269 9.746391e-01 2.902690e-02
270 9.745454e-01 2.899992e-02
271 9.744517e-01 2.897294e-02
272 9.743581e-01 2.894598e-02
273 9.742644e-01 2.891903e-02
274 9.741707e-01 2.889209e-02
275 9.740771e-01 2.886515e-02
276 9.739834e-01 2.883823e-02
277 9.738898e-01 2.881131e-02
278 9.737961e-01 2.878441e-02
279 9.737025e-01 2.875752e-02
280 9.736089e-01 2.873063e-02
281 9.735152e-01 2.870376e-02
282 9.734216e-01 2.867689e-02
283 9.733280e-01 2.865003e-02
284 9.732344e-01 2.862319e-02
285 9.731408e-01 2.859635e-02
286 9.730472e-01 2.856952e-02
287 9.729536e-01 2.854270e-02
288 9.728600e-01 2.851590e-02
289 9.727664e-01 2.848910e-02
290 9.726728e-01 2.846231e-02
291 9.725793e-01 2.843553e-02
292 9.724857e-01 2.840876e-02
293 9.723921e-01 2.838200e-02
294 9.722986e-01 2.835525e-02
295 9.722050e-01 2.832851e-02
296 9.721115e-01 2.830178e-02
297 9.720179e-01 2.827506e-02
298 9.719244e-01 2.824835e-02
299 9.718309e-01 2.822165e-02
300 9.717373e-01 2.819495e-02
301 9.716438e-01 2.816827e-02
302 9.715503e-01 2.814160e-02
303 9.714568e-01 2.811494e-02
304 9.713633e-01 2.808828e-02
305 9.712698e-01 2.806164e-02
306 9.711763e-01 2.803500e-02
307 9.710828e-01 2.800838e-02
308 9.709893e-01 2.798176e-02
309 9.708958e-01 2.795516e-02
310 9.708024e-01 2.792856e-02
311 9.707089e-01 2.790198e-02
312 9.706154e-01 2.787540e-02
313 9.705220e-01 2.784883e-02
314 9.704285e-01 2.782228e-02
315 9.703351e-01 2.779573e-02
316 9.702416e-01 2.776919e-02
317 9.701482e-01 2.774266e-02
318 9.700548e-01 2.771614e-02
319 9.699613e-01 2.768963e-02
320 9.698679e-01 2.766314e-02
321 9.697745e-01 2.763665e-02
322 9.696811e-01 2.761017e-02
323 9.695877e-01 2.758370e-02
324 9.694943e-01 2.755723e-02
325 9.694009e-01 2.753078e-02
326 9.693075e-01 2.750434e-02
327 9.692141e-01 2.747791e-02
328 9.691207e-01 2.745149e-02
329 9.690274e-01 2.742507e-02
330 9.689340e-01 2.739867e-02
331 9.688406e-01 2.737228e-02
332 9.687473e-01 2.734589e-02
333 9.686539e-01 2.731952e-02
334 9.685606e-01 2.729316e-02
335 9.684672e-01 2.726680e-02
336 9.683739e-01 2.724046e-02
337 9.682805e-01 2.721412e-02
338 9.681872e-01 2.718779e-02
339 9.680939e-01 2.716148e-02
340 9.680006e-01 2.713517e-02
341 9.679073e-01 2.710888e-02
342 9.678140e-01 2.708259e-02
343 9.677207e-01 2.705631e-02
344 9.676274e-01 2.703004e-02
345 9.675341e-01 2.700378e-02
346 9.674408e-01 2.697753e-02
347 9.673475e-01 2.695130e-02
348 9.672542e-01 2.692507e-02
349 9.671609e-01 2.689885e-02
350 9.670677e-01 2.687264e-02
351 9.669744e-01 2.684643e-02
352 9.668812e-01 2.682024e-02
353 9.667879e-01 2.679406e-02
354 9.666947e-01 2.676789e-02
355 9.666014e-01 2.674173e-02
356 9.665082e-01 2.671558e-02
357 9.664150e-01 2.668943e-02
358 9.663217e-01 2.666330e-02
359 9.662285e-01 2.663718e-02
360 9.661353e-01 2.661106e-02
361 9.660421e-01 2.658496e-02
362 9.659489e-01 2.655886e-02
363 9.658557e-01 2.653278e-02
364 9.657625e-01 2.650670e-02
365 9.656693e-01 2.648064e-02
366 9.655761e-01 2.645458e-02
367 9.654830e-01 2.642853e-02
368 9.653898e-01 2.640250e-02
369 9.652966e-01 2.637647e-02
370 9.652035e-01 2.635045e-02
371 9.651103e-01 2.632444e-02
372 9.650171e-01 2.629844e-02
373 9.649240e-01 2.627245e-02
374 9.648309e-01 2.624648e-02
375 9.647377e-01 2.622051e-02
376 9.646446e-01 2.619455e-02
377 9.645515e-01 2.616860e-02
378 9.644583e-01 2.614265e-02
379 9.643652e-01 2.611672e-02
380 9.642721e-01 2.609080e-02
381 9.641790e-01 2.606489e-02
382 9.640859e-01 2.603899e-02
383 9.639928e-01 2.601309e-02
384 9.638997e-01 2.598721e-02
385 9.638067e-01 2.596134e-02
386 9.637136e-01 2.593547e-02
387 9.636205e-01 2.590962e-02
388 9.635274e-01 2.588377e-02
389 9.634344e-01 2.585794e-02
390 9.633413e-01 2.583211e-02
391 9.632483e-01 2.580630e-02
392 9.631552e-01 2.578049e-02
393 9.630622e-01 2.575470e-02
394 9.629691e-01 2.572891e-02
395 9.628761e-01 2.570313e-02
396 9.627831e-01 2.567736e-02
397 9.626900e-01 2.565160e-02
398 9.625970e-01 2.562586e-02
399 9.625040e-01 2.560012e-02
400 9.624110e-01 2.557439e-02
401 9.623180e-01 2.554867e-02
402 9.622250e-01 2.552296e-02
403 9.621320e-01 2.549726e-02
404 9.620390e-01 2.547157e-02
405 9.619461e-01 2.544589e-02
406 9.618531e-01 2.542021e-02
407 9.617601e-01 2.539455e-02
408 9.616671e-01 2.536890e-02
409 9.615742e-01 2.534326e-02
410 9.614812e-01 2.531762e-02
411 9.613883e-01 2.529200e-02
412 9.612953e-01 2.526639e-02
413 9.612024e-01 2.524078e-02
414 9.611095e-01 2.521519e-02
415 9.610165e-01 2.518960e-02
416 9.609236e-01 2.516403e-02
417 9.608307e-01 2.513846e-02
418 9.607378e-01 2.511290e-02
419 9.606449e-01 2.508736e-02
420 9.605520e-01 2.506182e-02
421 9.604591e-01 2.503629e-02
422 9.603662e-01 2.501077e-02
423 9.602733e-01 2.498527e-02
424 9.601804e-01 2.495977e-02
425 9.600875e-01 2.493428e-02
426 9.599947e-01 2.490880e-02
427 9.599018e-01 2.488333e-02
428 9.598089e-01 2.485787e-02
429 9.597161e-01 2.483242e-02
430 9.596232e-01 2.480698e-02
431 9.595304e-01 2.478154e-02
432 9.594375e-01 2.475612e-02
433 9.593447e-01 2.473071e-02
434 9.592519e-01 2.470531e-02
435 9.591591e-01 2.467991e-02
436 9.590662e-01 2.465453e-02
437 9.589734e-01 2.462916e-02
438 9.588806e-01 2.460379e-02
439 9.587878e-01 2.457844e-02
440 9.586950e-01 2.455309e-02
441 9.586022e-01 2.452776e-02
442 9.585094e-01 2.450243e-02
443 9.584166e-01 2.447711e-02
444 9.583239e-01 2.445181e-02
445 9.582311e-01 2.442651e-02
446 9.581383e-01 2.440122e-02
447 9.580456e-01 2.437594e-02
448 9.579528e-01 2.435067e-02
449 9.578600e-01 2.432542e-02
450 9.577673e-01 2.430017e-02
451 9.576746e-01 2.427493e-02
452 9.575818e-01 2.424970e-02
453 9.574891e-01 2.422448e-02
454 9.573964e-01 2.419927e-02
455 9.573036e-01 2.417406e-02
456 9.572109e-01 2.414887e-02
457 9.571182e-01 2.412369e-02
458 9.570255e-01 2.409852e-02
459 9.569328e-01 2.407335e-02
460 9.568401e-01 2.404820e-02
461 9.567474e-01 2.402306e-02
462 9.566547e-01 2.399792e-02
463 9.565620e-01 2.397280e-02
464 9.564694e-01 2.394768e-02
465 9.563767e-01 2.392258e-02
466 9.562840e-01 2.389748e-02
467 9.561914e-01 2.387240e-02
468 9.560987e-01 2.384732e-02
469 9.560061e-01 2.382225e-02
470 9.559134e-01 2.379719e-02
471 9.558208e-01 2.377215e-02
472 9.557281e-01 2.374711e-02
473 9.556355e-01 2.372208e-02
474 9.555429e-01 2.369706e-02
475 9.554503e-01 2.367205e-02
476 9.553577e-01 2.364705e-02
477 9.552651e-01 2.362206e-02
478 9.551725e-01 2.359708e-02
479 9.550799e-01 2.357211e-02
480 9.549873e-01 2.354714e-02
481 9.548947e-01 2.352219e-02
482 9.548021e-01 2.349725e-02
483 9.547095e-01 2.347232e-02
484 9.546169e-01 2.344739e-02
485 9.545244e-01 2.342248e-02
486 9.544318e-01 2.339757e-02
487 9.543393e-01 2.337268e-02
488 9.542467e-01 2.334779e-02
489 9.541542e-01 2.332292e-02
490 9.540616e-01 2.329805e-02
491 9.539691e-01 2.327320e-02
492 9.538765e-01 2.324835e-02
493 9.537840e-01 2.322351e-02
494 9.536915e-01 2.319868e-02
495 9.535990e-01 2.317387e-02
496 9.535065e-01 2.314906e-02
497 9.534140e-01 2.312426e-02
498 9.533215e-01 2.309947e-02
499 9.532290e-01 2.307469e-02
500 9.531365e-01 2.304992e-02
501 9.530440e-01 2.302516e-02
502 9.529515e-01 2.300041e-02
503 9.528590e-01 2.297567e-02
504 9.527666e-01 2.295093e-02
505 9.526741e-01 2.292621e-02
506 9.525816e-01 2.290150e-02
507 9.524892e-01 2.287679e-02
508 9.523967e-01 2.285210e-02
509 9.523043e-01 2.282742e-02
510 9.522119e-01 2.280274e-02
511 9.521194e-01 2.277808e-02
512 9.520270e-01 2.275342e-02
513 9.519346e-01 2.272877e-02
514 9.518421e-01 2.270414e-02
515 9.517497e-01 2.267951e-02
516 9.516573e-01 2.265489e-02
517 9.515649e-01 2.263029e-02
518 9.514725e-01 2.260569e-02
519 9.513801e-01 2.258110e-02
520 9.512877e-01 2.255652e-02
521 9.511954e-01 2.253195e-02
522 9.511030e-01 2.250739e-02
523 9.510106e-01 2.248284e-02
524 9.509182e-01 2.245830e-02
525 9.508259e-01 2.243377e-02
526 9.507335e-01 2.240925e-02
527 9.506412e-01 2.238473e-02
528 9.505488e-01 2.236023e-02
529 9.504565e-01 2.233574e-02
530 9.503641e-01 2.231125e-02
531 9.502718e-01 2.228678e-02
532 9.501795e-01 2.226232e-02
533 9.500872e-01 2.223786e-02
534 9.499949e-01 2.221342e-02
535 9.499025e-01 2.218898e-02
536 9.498102e-01 2.216455e-02
537 9.497179e-01 2.214014e-02
538 9.496256e-01 2.211573e-02
539 9.495333e-01 2.209133e-02
540 9.494411e-01 2.206694e-02
541 9.493488e-01 2.204257e-02
542 9.492565e-01 2.201820e-02
543 9.491642e-01 2.199384e-02
544 9.490720e-01 2.196949e-02
545 9.489797e-01 2.194515e-02
546 9.488875e-01 2.192082e-02
547 9.487952e-01 2.189649e-02
548 9.487030e-01 2.187218e-02
549 9.486107e-01 2.184788e-02
550 9.485185e-01 2.182359e-02
551 9.484263e-01 2.179931e-02
552 9.483340e-01 2.177503e-02
553 9.482418e-01 2.175077e-02
554 9.481496e-01 2.172651e-02
555 9.480574e-01 2.170227e-02
556 9.479652e-01 2.167803e-02
557 9.478730e-01 2.165381e-02
558 9.477808e-01 2.162959e-02
559 9.476886e-01 2.160538e-02
560 9.475964e-01 2.158119e-02
561 9.475042e-01 2.155700e-02
562 9.474121e-01 2.153282e-02
563 9.473199e-01 2.150865e-02
564 9.472277e-01 2.148449e-02
565 9.471356e-01 2.146034e-02
566 9.470434e-01 2.143620e-02
567 9.469513e-01 2.141207e-02
568 9.468591e-01 2.138795e-02
569 9.467670e-01 2.136384e-02
570 9.466749e-01 2.133974e-02
571 9.465827e-01 2.131565e-02
572 9.464906e-01 2.129156e-02
573 9.463985e-01 2.126749e-02
574 9.463064e-01 2.124343e-02
575 9.462143e-01 2.121937e-02
576 9.461222e-01 2.119533e-02
577 9.460301e-01 2.117129e-02
578 9.459380e-01 2.114727e-02
579 9.458459e-01 2.112325e-02
580 9.457538e-01 2.109924e-02
581 9.456618e-01 2.107525e-02
582 9.455697e-01 2.105126e-02
583 9.454776e-01 2.102728e-02
584 9.453856e-01 2.100331e-02
585 9.452935e-01 2.097935e-02
586 9.452014e-01 2.095540e-02
587 9.451094e-01 2.093146e-02
588 9.450174e-01 2.090753e-02
589 9.449253e-01 2.088361e-02
590 9.448333e-01 2.085970e-02
591 9.447413e-01 2.083580e-02
592 9.446492e-01 2.081191e-02
593 9.445572e-01 2.078802e-02
594 9.444652e-01 2.076415e-02
595 9.443732e-01 2.074029e-02
596 9.442812e-01 2.071643e-02
597 9.441892e-01 2.069259e-02
598 9.440972e-01 2.066875e-02
599 9.440052e-01 2.064493e-02
600 9.439133e-01 2.062111e-02
601 9.438213e-01 2.059730e-02
602 9.437293e-01 2.057351e-02
603 9.436374e-01 2.054972e-02
604 9.435454e-01 2.052594e-02
605 9.434534e-01 2.050217e-02
606 9.433615e-01 2.047841e-02
607 9.432696e-01 2.045466e-02
608 9.431776e-01 2.043092e-02
609 9.430857e-01 2.040719e-02
610 9.429938e-01 2.038347e-02
611 9.429018e-01 2.035976e-02
612 9.428099e-01 2.033606e-02
613 9.427180e-01 2.031237e-02
614 9.426261e-01 2.028868e-02
615 9.425342e-01 2.026501e-02
616 9.424423e-01 2.024134e-02
617 9.423504e-01 2.021769e-02
618 9.422585e-01 2.019404e-02
619 9.421666e-01 2.017041e-02
620 9.420747e-01 2.014678e-02
621 9.419829e-01 2.012317e-02
622 9.418910e-01 2.009956e-02
623 9.417991e-01 2.007596e-02
624 9.417073e-01 2.005237e-02
625 9.416154e-01 2.002880e-02
626 9.415236e-01 2.000523e-02
627 9.414317e-01 1.998167e-02
628 9.413399e-01 1.995812e-02
629 9.412481e-01 1.993458e-02
630 9.411562e-01 1.991104e-02
631 9.410644e-01 1.988752e-02
632 9.409726e-01 1.986401e-02
633 9.408808e-01 1.984051e-02
634 9.407890e-01 1.981702e-02
635 9.406972e-01 1.979353e-02
636 9.406054e-01 1.977006e-02
637 9.405136e-01 1.974659e-02
638 9.404218e-01 1.972314e-02
639 9.403300e-01 1.969969e-02
640 9.402382e-01 1.967626e-02
641 9.401465e-01 1.965283e-02
642 9.400547e-01 1.962941e-02
643 9.399629e-01 1.960600e-02
644 9.398712e-01 1.958261e-02
645 9.397794e-01 1.955922e-02
646 9.396877e-01 1.953584e-02
647 9.395959e-01 1.951247e-02
648 9.395042e-01 1.948911e-02
649 9.394125e-01 1.946576e-02
650 9.393207e-01 1.944242e-02
651 9.392290e-01 1.941908e-02
652 9.391373e-01 1.939576e-02
653 9.390456e-01 1.937245e-02
654 9.389539e-01 1.934915e-02
655 9.388622e-01 1.932585e-02
656 9.387705e-01 1.930257e-02
657 9.386788e-01 1.927929e-02
658 9.385871e-01 1.925603e-02
659 9.384954e-01 1.923277e-02
660 9.384038e-01 1.920953e-02
661 9.383121e-01 1.918629e-02
662 9.382204e-01 1.916306e-02
663 9.381288e-01 1.913984e-02
664 9.380371e-01 1.911663e-02
665 9.379455e-01 1.909343e-02
666 9.378538e-01 1.907025e-02
667 9.377622e-01 1.904707e-02
