# 150608 2014 pa1 jitter
# jitter = 14.40 +- 3.20 arcsec
# pivot_ell = 1700
# norm_ell = 0
# solid angle = 224.80 nsr
0.000000  1.00000e+00
0.001042  9.94989e-01
0.002083  9.80094e-01
0.003125  9.55723e-01
0.004167  9.22539e-01
0.005208  8.81431e-01
0.006250  8.33478e-01
0.007292  7.79908e-01
0.008333  7.22050e-01
0.009375  6.61283e-01
0.010417  5.98985e-01
0.011458  5.36488e-01
0.012500  4.75031e-01
0.013542  4.15724e-01
0.014583  3.59521e-01
0.015625  3.07193e-01
0.016667  2.59322e-01
0.017708  2.16295e-01
0.018750  1.78308e-01
0.019792  1.45383e-01
0.020833  1.17386e-01
0.021875  9.40506e-02
0.022917  7.50046e-02
0.023958  5.98012e-02
0.025000  4.79466e-02
0.026042  3.89272e-02
0.027083  3.22347e-02
0.028125  2.73862e-02
0.029167  2.39408e-02
0.030208  2.15117e-02
0.031250  1.97730e-02
0.032292  1.84623e-02
0.033333  1.73798e-02
0.034375  1.63840e-02
0.035417  1.53845e-02
0.036458  1.43340e-02
0.037500  1.32189e-02
0.038542  1.20497e-02
0.039583  1.08528e-02
0.040625  9.66221e-03
0.041667  8.51330e-03
0.042708  7.43807e-03
0.043750  6.46173e-03
0.044792  5.60093e-03
0.045833  4.86333e-03
0.046875  4.24816e-03
0.047917  3.74755e-03
0.048958  3.34839e-03
0.050000  3.03434e-03
0.051042  2.78777e-03
0.052083  2.59151e-03
0.053125  2.43016e-03
0.054167  2.29107e-03
0.055208  2.16474e-03
0.056250  2.04489e-03
0.057292  1.92819e-03
0.058333  1.81371e-03
0.059375  1.70224e-03
0.060417  1.59559e-03
0.061458  1.49588e-03
0.062500  1.40505e-03
0.063542  1.32441e-03
0.064583  1.25444e-03
0.065625  1.19473e-03
0.066667  1.14408e-03
0.067708  1.10070e-03
0.068750  1.06247e-03
0.069792  1.02723e-03
0.070833  9.93044e-04
0.071875  9.58403e-04
0.072917  9.22352e-04
0.073958  8.84540e-04
0.075000  8.45184e-04
0.076042  8.04964e-04
0.077083  7.64871e-04
0.078125  7.26031e-04
0.079167  6.89531e-04
0.080208  6.56264e-04
0.081250  6.26820e-04
0.082292  6.01421e-04
0.083333  5.79912e-04
0.084375  5.61802e-04
0.085417  5.46344e-04
0.086458  5.32645e-04
0.087500  5.19778e-04
0.088542  5.06901e-04
0.089583  4.93347e-04
0.090625  4.78692e-04
0.091667  4.62781e-04
0.092708  4.45730e-04
0.093750  4.27877e-04
0.094792  4.09728e-04
0.095833  3.91872e-04
0.096875  3.74897e-04
0.097917  3.59315e-04
0.098958  3.45495e-04
0.100000  3.33625e-04
0.101042  3.23696e-04
0.102083  3.15511e-04
0.103125  3.08721e-04
0.104167  3.02872e-04
0.105208  2.97469e-04
0.106250  2.92035e-04
0.107292  2.86167e-04
0.108333  2.79583e-04
0.109375  2.72146e-04
0.110417  2.63868e-04
0.111458  2.54906e-04
0.112500  2.45525e-04
0.113542  2.36062e-04
0.114583  2.26879e-04
0.115625  2.18312e-04
0.116667  2.10634e-04
0.117708  2.04020e-04
0.118750  1.98529e-04
0.119792  1.94104e-04
0.120833  1.90582e-04
0.121875  1.87719e-04
0.122917  1.85223e-04
0.123958  1.82789e-04
0.125000  1.80142e-04
0.126042  1.77062e-04
0.127083  1.73414e-04
0.128125  1.69155e-04
0.129167  1.64335e-04
0.130208  1.59090e-04
0.131250  1.53616e-04
0.132292  1.48143e-04
0.133333  1.42907e-04
0.134375  1.38116e-04
0.135417  1.33930e-04
0.136458  1.30438e-04
0.137500  1.27654e-04
0.138542  1.25516e-04
0.139583  1.23896e-04
0.140625  1.22618e-04
0.141667  1.21482e-04
0.142708  1.20289e-04
0.143750  1.18865e-04
0.144792  1.17079e-04
0.145833  1.14860e-04
0.146875  1.12200e-04
0.147917  1.09155e-04
0.148958  1.05833e-04
0.150000  1.02381e-04
0.151042  9.89621e-05
0.152083  9.57377e-05
0.153125  9.28460e-05
0.154167  9.03865e-05
0.155208  8.84086e-05
0.156250  8.69074e-05
0.157292  8.58263e-05
0.158333  8.50650e-05
0.159375  8.44937e-05
0.160417  8.39693e-05
0.161458  8.33533e-05
0.162500  8.25286e-05
0.163542  8.14120e-05
0.164583  7.99641e-05
0.165625  7.81916e-05
0.166667  7.61450e-05
0.167708  7.39111e-05
0.168750  7.16007e-05
0.169792  6.93344e-05
0.170833  6.72277e-05
0.171875  6.53767e-05
0.172917  6.38468e-05
0.173958  6.26663e-05
0.175000  6.18234e-05
0.176042  6.12691e-05
0.177083  6.09242e-05
0.178125  6.06898e-05
0.179167  6.04595e-05
0.180208  6.01330e-05
0.181250  5.96276e-05
0.182292  5.88878e-05
0.183333  5.78907e-05
0.184375  5.66485e-05
0.185417  5.52051e-05
0.186458  5.36302e-05
0.187500  5.20098e-05
0.188542  5.04355e-05
0.189583  4.89927e-05
0.190625  4.77511e-05
0.191667  4.67558e-05
0.192708  4.60231e-05
0.193750  4.55392e-05
0.194792  4.52622e-05
0.195833  4.51287e-05
0.196875  4.50614e-05
0.197917  4.49790e-05
0.198958  4.48062e-05
0.200000  4.44823e-05
0.201042  4.39687e-05
0.202083  4.32520e-05
0.203125  4.23459e-05
0.204167  4.12879e-05
0.205208  4.01348e-05
0.206250  3.89546e-05
0.207292  3.78186e-05
0.208333  3.67922e-05
0.209375  3.59271e-05
0.210417  3.52557e-05
0.211458  3.47875e-05
0.212500  3.45084e-05
0.213542  3.43831e-05
0.214583  3.43597e-05
0.215625  3.43767e-05
0.216667  3.43703e-05
0.217708  3.42825e-05
0.218750  3.40674e-05
0.219792  3.36969e-05
0.220833  3.31636e-05
0.221875  3.24808e-05
0.222917  3.16806e-05
0.223958  3.08098e-05
0.225000  2.99232e-05
0.226042  2.90774e-05
0.227083  2.83236e-05
0.228125  2.77015e-05
0.229167  2.72351e-05
0.230208  2.69296e-05
0.231250  2.67716e-05
0.232292  2.67311e-05
0.233333  2.67653e-05
0.234375  2.68242e-05
0.235417  2.68569e-05
0.236458  2.68174e-05
0.237500  2.66702e-05
0.238542  2.63945e-05
0.239583  2.59860e-05
0.240625  2.54575e-05
0.241667  2.48365e-05
0.242708  2.41616e-05
0.243750  2.34781e-05
0.244792  2.28316e-05
0.245833  2.22631e-05
0.246875  2.18038e-05
0.247917  2.14717e-05
0.248958  2.12695e-05
0.250000  2.11850e-05
0.251042  2.11924e-05
0.252083  2.12560e-05
0.253125  2.13345e-05
0.254167  2.13866e-05
0.255208  2.13750e-05
0.256250  2.12718e-05
0.257292  2.10610e-05
0.258333  2.07406e-05
0.259375  2.03223e-05
0.260417  1.98296e-05
0.261458  1.92952e-05
0.262500  1.87566e-05
0.263542  1.82513e-05
0.264583  1.78127e-05
0.265625  1.74658e-05
0.266667  1.72243e-05
0.267708  1.70896e-05
0.268750  1.70505e-05
0.269792  1.70847e-05
0.270833  1.71621e-05
0.271875  1.72483e-05
0.272917  1.73089e-05
0.273958  1.73135e-05
0.275000  1.72397e-05
0.276042  1.70749e-05
0.277083  1.68185e-05
0.278125  1.64809e-05
0.279167  1.60828e-05
0.280208  1.56517e-05
0.281250  1.52192e-05
0.282292  1.48167e-05
0.283333  1.44716e-05
0.284375  1.42044e-05
0.285417  1.40257e-05
0.286458  1.39361e-05
0.287500  1.39252e-05
0.288542  1.39739e-05
0.289583  1.40564e-05
0.290625  1.41438e-05
0.291667  1.42070e-05
0.292708  1.42211e-05
0.293750  1.41673e-05
0.294792  1.40360e-05
0.295833  1.38272e-05
0.296875  1.35503e-05
0.297917  1.32234e-05
0.298958  1.28700e-05
0.300000  1.25171e-05
0.301042  1.21911e-05
0.302083  1.19149e-05
0.303125  1.17055e-05
0.304167  1.15714e-05
0.305208  1.15123e-05
0.306250  1.15190e-05
0.307292  1.15749e-05
0.308333  1.16578e-05
0.309375  1.17428e-05
0.310417  1.18055e-05
0.311458  1.18247e-05
0.312500  1.17851e-05
0.313542  1.16787e-05
0.314583  1.15060e-05
0.315625  1.12757e-05
0.316667  1.10035e-05
0.317708  1.07099e-05
0.318750  1.04178e-05
0.319792  1.01499e-05
0.320833  9.92552e-06
0.321875  9.75884e-06
0.322917  9.65684e-06
0.323958  9.61881e-06
0.325000  9.63650e-06
0.326042  9.69523e-06
0.327083  9.77578e-06
0.328125  9.85674e-06
0.329167  9.91716e-06
0.330208  9.93903e-06
0.331250  9.90941e-06
0.332292  9.82189e-06
0.333333  9.67729e-06
0.334375  9.48341e-06
0.335417  9.25399e-06
0.336458  9.00696e-06
0.337500  8.76221e-06
0.338542  8.53918e-06
0.339583  8.35450e-06
0.340625  8.22006e-06
0.341667  8.14164e-06
0.342708  8.11828e-06
0.343750  8.14256e-06
0.344792  8.20152e-06
0.345833  8.27835e-06
0.346875  8.35447e-06
0.347917  8.41175e-06
0.348958  8.43472e-06
0.350000  8.41240e-06
0.351042  8.33950e-06
0.352083  8.21701e-06
0.353125  8.05198e-06
0.354167  7.85657e-06
0.355208  7.64651e-06
0.356250  7.43915e-06
0.357292  7.25138e-06
0.358333  7.09754e-06
0.359375  6.98779e-06
0.360417  6.92692e-06
0.361458  6.91387e-06
0.362500  6.94191e-06
0.363542  6.99957e-06
0.364583  7.07204e-06
0.365625  7.14305e-06
0.366667  7.19683e-06
0.367708  7.21997e-06
0.368750  7.20303e-06
0.369792  7.14161e-06
0.370833  7.03680e-06
0.371875  6.89498e-06
0.372917  6.72695e-06
0.373958  6.54662e-06
0.375000  6.36922e-06
0.376042  6.20951e-06
0.377083  6.07999e-06
0.378125  5.98942e-06
0.379167  5.94180e-06
0.380208  5.93602e-06
0.381250  5.96598e-06
0.382292  6.02146e-06
0.383333  6.08935e-06
0.384375  6.15532e-06
0.385417  6.20552e-06
0.386458  6.22825e-06
0.387500  6.21533e-06
0.388542  6.16306e-06
0.389583  6.07258e-06
0.390625  5.94965e-06
0.391667  5.80395e-06
0.392708  5.64781e-06
0.393750  5.49470e-06
0.394792  5.35763e-06
0.395833  5.24754e-06
0.396875  5.17204e-06
0.397917  5.13455e-06
0.398958  5.13389e-06
0.400000  5.16457e-06
0.401042  5.21740e-06
0.402083  5.28075e-06
0.403125  5.34189e-06
0.404167  5.38860e-06
0.405208  5.41058e-06
0.406250  5.40070e-06
0.407292  5.35582e-06
0.408333  5.27707e-06
0.409375  5.16971e-06
0.410417  5.04241e-06
0.411458  4.90617e-06
0.412500  4.77299e-06
0.413542  4.65438e-06
0.414583  4.55999e-06
0.415625  4.49649e-06
0.416667  4.46679e-06
0.417708  4.46975e-06
0.418750  4.50035e-06
0.419792  4.55035e-06
0.420833  4.60931e-06
0.421875  4.66592e-06
0.422917  4.70930e-06
0.423958  4.73034e-06
0.425000  4.72279e-06
0.426042  4.68394e-06
0.427083  4.61492e-06
0.428125  4.52050e-06
0.429167  4.40852e-06
0.430208  4.28882e-06
0.431250  4.17214e-06
0.432292  4.06873e-06
0.433333  3.98716e-06
0.434375  3.93331e-06
0.435417  3.90969e-06
0.436458  3.91518e-06
0.437500  3.94519e-06
0.438542  3.99230e-06
0.439583  4.04713e-06
0.440625  4.09953e-06
0.441667  4.13979e-06
0.442708  4.15981e-06
0.443750  4.15405e-06
0.444792  4.12018e-06
0.445833  4.05928e-06
0.446875  3.97574e-06
0.447917  3.87661e-06
0.448958  3.77079e-06
0.450000  3.66790e-06
0.451042  3.57713e-06
0.452083  3.50613e-06
0.453125  3.46012e-06
0.454167  3.44126e-06
0.455208  3.44848e-06
0.456250  3.47760e-06
0.457292  3.52187e-06
0.458333  3.57283e-06
0.459375  3.62136e-06
0.460417  3.65873e-06
0.461458  3.67769e-06
0.462500  3.67333e-06
0.463542  3.64360e-06
0.464583  3.58957e-06
0.465625  3.51522e-06
0.466667  3.42698e-06
0.467708  3.33289e-06
0.468750  3.24163e-06
0.469792  3.16146e-06
0.470833  3.09925e-06
0.471875  3.05965e-06
0.472917  3.04457e-06
0.473958  3.05295e-06
0.475000  3.08097e-06
0.476042  3.12251e-06
0.477083  3.16989e-06
0.478125  3.21487e-06
0.479167  3.24957e-06
0.480208  3.26749e-06
0.481250  3.26422e-06
0.482292  3.23797e-06
0.483333  3.18977e-06
0.484375  3.12326e-06
0.485417  3.04431e-06
0.486458  2.96021e-06
0.487500  2.87882e-06
0.488542  2.80762e-06
0.489583  2.75278e-06
0.490625  2.71848e-06
0.491667  2.70640e-06
0.492708  2.71553e-06
0.493750  2.74236e-06
0.494792  2.78129e-06
0.495833  2.82537e-06
0.496875  2.86710e-06
0.497917  2.89935e-06
0.498958  2.91626e-06
0.500000  2.91385e-06
