# 150608 2014 pa1 jitter
# jitter = 14.40 +- 3.20 arcsec
# pivot_ell = 1700
# norm_ell = 0
# solid angle = 224.80 nsr
    0  1.00000e+00  4.9974e-03 -1.6620e-02 -1.9494e-03 -1.6704e-04
    1  9.99967e-01  4.9963e-03 -1.6611e-02 -1.9479e-03 -1.6680e-04
    2  9.99914e-01  4.9944e-03 -1.6595e-02 -1.9454e-03 -1.6641e-04
    3  9.99864e-01  4.9927e-03 -1.6581e-02 -1.9432e-03 -1.6605e-04
    4  9.99812e-01  4.9910e-03 -1.6566e-02 -1.9408e-03 -1.6568e-04
    5  9.99762e-01  4.9893e-03 -1.6552e-02 -1.9385e-03 -1.6532e-04
    6  9.99711e-01  4.9875e-03 -1.6537e-02 -1.9361e-03 -1.6495e-04
    7  9.99660e-01  4.9858e-03 -1.6523e-02 -1.9338e-03 -1.6459e-04
    8  9.99609e-01  4.9840e-03 -1.6508e-02 -1.9315e-03 -1.6422e-04
    9  9.99558e-01  4.9823e-03 -1.6494e-02 -1.9291e-03 -1.6385e-04
   10  9.99507e-01  4.9806e-03 -1.6479e-02 -1.9268e-03 -1.6349e-04
   11  9.99456e-01  4.9788e-03 -1.6465e-02 -1.9245e-03 -1.6312e-04
   12  9.99405e-01  4.9771e-03 -1.6450e-02 -1.9221e-03 -1.6276e-04
   13  9.99353e-01  4.9753e-03 -1.6436e-02 -1.9198e-03 -1.6239e-04
   14  9.99302e-01  4.9736e-03 -1.6421e-02 -1.9175e-03 -1.6203e-04
   15  9.99251e-01  4.9718e-03 -1.6407e-02 -1.9152e-03 -1.6167e-04
   16  9.99200e-01  4.9701e-03 -1.6392e-02 -1.9128e-03 -1.6130e-04
   17  9.99149e-01  4.9683e-03 -1.6378e-02 -1.9105e-03 -1.6094e-04
   18  9.99098e-01  4.9665e-03 -1.6364e-02 -1.9082e-03 -1.6058e-04
   19  9.99046e-01  4.9648e-03 -1.6349e-02 -1.9059e-03 -1.6022e-04
   20  9.98995e-01  4.9630e-03 -1.6335e-02 -1.9036e-03 -1.5985e-04
   21  9.98944e-01  4.9613e-03 -1.6320e-02 -1.9013e-03 -1.5949e-04
   22  9.98893e-01  4.9595e-03 -1.6306e-02 -1.8989e-03 -1.5913e-04
   23  9.98841e-01  4.9577e-03 -1.6291e-02 -1.8966e-03 -1.5877e-04
   24  9.98790e-01  4.9560e-03 -1.6277e-02 -1.8943e-03 -1.5841e-04
   25  9.98739e-01  4.9542e-03 -1.6262e-02 -1.8920e-03 -1.5805e-04
   26  9.98687e-01  4.9524e-03 -1.6248e-02 -1.8897e-03 -1.5769e-04
   27  9.98636e-01  4.9507e-03 -1.6234e-02 -1.8874e-03 -1.5733e-04
   28  9.98585e-01  4.9489e-03 -1.6219e-02 -1.8851e-03 -1.5697e-04
   29  9.98533e-01  4.9471e-03 -1.6205e-02 -1.8828e-03 -1.5662e-04
   30  9.98482e-01  4.9453e-03 -1.6190e-02 -1.8805e-03 -1.5626e-04
   31  9.98430e-01  4.9436e-03 -1.6176e-02 -1.8782e-03 -1.5590e-04
   32  9.98379e-01  4.9418e-03 -1.6162e-02 -1.8759e-03 -1.5554e-04
   33  9.98327e-01  4.9400e-03 -1.6147e-02 -1.8736e-03 -1.5519e-04
   34  9.98276e-01  4.9382e-03 -1.6133e-02 -1.8713e-03 -1.5483e-04
   35  9.98224e-01  4.9364e-03 -1.6119e-02 -1.8690e-03 -1.5447e-04
   36  9.98173e-01  4.9346e-03 -1.6104e-02 -1.8667e-03 -1.5412e-04
   37  9.98121e-01  4.9328e-03 -1.6090e-02 -1.8644e-03 -1.5376e-04
   38  9.98070e-01  4.9311e-03 -1.6075e-02 -1.8622e-03 -1.5340e-04
   39  9.98018e-01  4.9293e-03 -1.6061e-02 -1.8599e-03 -1.5305e-04
   40  9.97966e-01  4.9275e-03 -1.6047e-02 -1.8576e-03 -1.5269e-04
   41  9.97915e-01  4.9257e-03 -1.6032e-02 -1.8553e-03 -1.5234e-04
   42  9.97863e-01  4.9239e-03 -1.6018e-02 -1.8530e-03 -1.5199e-04
   43  9.97811e-01  4.9221e-03 -1.6004e-02 -1.8507e-03 -1.5163e-04
   44  9.97760e-01  4.9203e-03 -1.5989e-02 -1.8485e-03 -1.5128e-04
   45  9.97708e-01  4.9185e-03 -1.5975e-02 -1.8462e-03 -1.5093e-04
   46  9.97656e-01  4.9167e-03 -1.5961e-02 -1.8439e-03 -1.5057e-04
   47  9.97604e-01  4.9149e-03 -1.5947e-02 -1.8416e-03 -1.5022e-04
   48  9.97553e-01  4.9131e-03 -1.5932e-02 -1.8394e-03 -1.4987e-04
   49  9.97501e-01  4.9113e-03 -1.5918e-02 -1.8371e-03 -1.4952e-04
   50  9.97449e-01  4.9094e-03 -1.5904e-02 -1.8348e-03 -1.4917e-04
   51  9.97397e-01  4.9076e-03 -1.5889e-02 -1.8325e-03 -1.4882e-04
   52  9.97345e-01  4.9058e-03 -1.5875e-02 -1.8303e-03 -1.4847e-04
   53  9.97293e-01  4.9040e-03 -1.5861e-02 -1.8280e-03 -1.4812e-04
   54  9.97241e-01  4.9022e-03 -1.5847e-02 -1.8257e-03 -1.4777e-04
   55  9.97189e-01  4.9004e-03 -1.5832e-02 -1.8235e-03 -1.4742e-04
   56  9.97137e-01  4.8986e-03 -1.5818e-02 -1.8212e-03 -1.4707e-04
   57  9.97086e-01  4.8967e-03 -1.5804e-02 -1.8190e-03 -1.4672e-04
   58  9.97034e-01  4.8949e-03 -1.5790e-02 -1.8167e-03 -1.4637e-04
   59  9.96982e-01  4.8931e-03 -1.5775e-02 -1.8144e-03 -1.4602e-04
   60  9.96930e-01  4.8913e-03 -1.5761e-02 -1.8122e-03 -1.4568e-04
   61  9.96877e-01  4.8894e-03 -1.5747e-02 -1.8099e-03 -1.4533e-04
   62  9.96825e-01  4.8876e-03 -1.5733e-02 -1.8077e-03 -1.4498e-04
   63  9.96773e-01  4.8858e-03 -1.5719e-02 -1.8054e-03 -1.4464e-04
   64  9.96721e-01  4.8839e-03 -1.5704e-02 -1.8032e-03 -1.4429e-04
   65  9.96669e-01  4.8821e-03 -1.5690e-02 -1.8009e-03 -1.4394e-04
   66  9.96617e-01  4.8803e-03 -1.5676e-02 -1.7987e-03 -1.4360e-04
   67  9.96565e-01  4.8784e-03 -1.5662e-02 -1.7964e-03 -1.4325e-04
   68  9.96513e-01  4.8766e-03 -1.5648e-02 -1.7942e-03 -1.4291e-04
   69  9.96460e-01  4.8747e-03 -1.5634e-02 -1.7920e-03 -1.4256e-04
   70  9.96408e-01  4.8729e-03 -1.5619e-02 -1.7897e-03 -1.4222e-04
   71  9.96356e-01  4.8711e-03 -1.5605e-02 -1.7875e-03 -1.4188e-04
   72  9.96304e-01  4.8692e-03 -1.5591e-02 -1.7852e-03 -1.4153e-04
   73  9.96251e-01  4.8674e-03 -1.5577e-02 -1.7830e-03 -1.4119e-04
   74  9.96199e-01  4.8655e-03 -1.5563e-02 -1.7808e-03 -1.4085e-04
   75  9.96147e-01  4.8637e-03 -1.5549e-02 -1.7785e-03 -1.4050e-04
   76  9.96094e-01  4.8618e-03 -1.5534e-02 -1.7763e-03 -1.4016e-04
   77  9.96042e-01  4.8600e-03 -1.5520e-02 -1.7741e-03 -1.3982e-04
   78  9.95990e-01  4.8581e-03 -1.5506e-02 -1.7718e-03 -1.3948e-04
   79  9.95937e-01  4.8562e-03 -1.5492e-02 -1.7696e-03 -1.3914e-04
   80  9.95885e-01  4.8544e-03 -1.5478e-02 -1.7674e-03 -1.3880e-04
   81  9.95832e-01  4.8525e-03 -1.5464e-02 -1.7652e-03 -1.3846e-04
   82  9.95780e-01  4.8507e-03 -1.5450e-02 -1.7629e-03 -1.3812e-04
   83  9.95727e-01  4.8488e-03 -1.5436e-02 -1.7607e-03 -1.3778e-04
   84  9.95675e-01  4.8469e-03 -1.5422e-02 -1.7585e-03 -1.3744e-04
   85  9.95622e-01  4.8451e-03 -1.5408e-02 -1.7563e-03 -1.3710e-04
   86  9.95570e-01  4.8432e-03 -1.5394e-02 -1.7541e-03 -1.3676e-04
   87  9.95517e-01  4.8413e-03 -1.5379e-02 -1.7519e-03 -1.3642e-04
   88  9.95465e-01  4.8395e-03 -1.5365e-02 -1.7496e-03 -1.3609e-04
   89  9.95412e-01  4.8376e-03 -1.5351e-02 -1.7474e-03 -1.3575e-04
   90  9.95359e-01  4.8357e-03 -1.5337e-02 -1.7452e-03 -1.3541e-04
   91  9.95307e-01  4.8338e-03 -1.5323e-02 -1.7430e-03 -1.3507e-04
   92  9.95254e-01  4.8319e-03 -1.5309e-02 -1.7408e-03 -1.3474e-04
   93  9.95201e-01  4.8301e-03 -1.5295e-02 -1.7386e-03 -1.3440e-04
   94  9.95149e-01  4.8282e-03 -1.5281e-02 -1.7364e-03 -1.3407e-04
   95  9.95096e-01  4.8263e-03 -1.5267e-02 -1.7342e-03 -1.3373e-04
   96  9.95043e-01  4.8244e-03 -1.5253e-02 -1.7320e-03 -1.3340e-04
   97  9.94991e-01  4.8225e-03 -1.5239e-02 -1.7298e-03 -1.3306e-04
   98  9.94938e-01  4.8206e-03 -1.5225e-02 -1.7276e-03 -1.3273e-04
   99  9.94885e-01  4.8187e-03 -1.5211e-02 -1.7254e-03 -1.3239e-04
  100  9.94832e-01  4.8169e-03 -1.5197e-02 -1.7232e-03 -1.3206e-04
  101  9.94779e-01  4.8150e-03 -1.5183e-02 -1.7210e-03 -1.3173e-04
  102  9.94726e-01  4.8131e-03 -1.5169e-02 -1.7188e-03 -1.3139e-04
  103  9.94674e-01  4.8112e-03 -1.5155e-02 -1.7166e-03 -1.3106e-04
  104  9.94621e-01  4.8093e-03 -1.5141e-02 -1.7144e-03 -1.3073e-04
  105  9.94568e-01  4.8074e-03 -1.5127e-02 -1.7122e-03 -1.3040e-04
  106  9.94515e-01  4.8055e-03 -1.5113e-02 -1.7100e-03 -1.3007e-04
  107  9.94462e-01  4.8036e-03 -1.5099e-02 -1.7079e-03 -1.2974e-04
  108  9.94409e-01  4.8017e-03 -1.5085e-02 -1.7057e-03 -1.2940e-04
  109  9.94356e-01  4.7998e-03 -1.5071e-02 -1.7035e-03 -1.2907e-04
  110  9.94303e-01  4.7979e-03 -1.5058e-02 -1.7013e-03 -1.2874e-04
  111  9.94250e-01  4.7959e-03 -1.5044e-02 -1.6991e-03 -1.2841e-04
  112  9.94197e-01  4.7940e-03 -1.5030e-02 -1.6969e-03 -1.2809e-04
  113  9.94144e-01  4.7921e-03 -1.5016e-02 -1.6948e-03 -1.2776e-04
  114  9.94091e-01  4.7902e-03 -1.5002e-02 -1.6926e-03 -1.2743e-04
  115  9.94038e-01  4.7883e-03 -1.4988e-02 -1.6904e-03 -1.2710e-04
  116  9.93984e-01  4.7864e-03 -1.4974e-02 -1.6883e-03 -1.2677e-04
  117  9.93931e-01  4.7844e-03 -1.4960e-02 -1.6861e-03 -1.2644e-04
  118  9.93878e-01  4.7825e-03 -1.4946e-02 -1.6839e-03 -1.2612e-04
  119  9.93825e-01  4.7806e-03 -1.4932e-02 -1.6817e-03 -1.2579e-04
  120  9.93772e-01  4.7787e-03 -1.4919e-02 -1.6796e-03 -1.2546e-04
  121  9.93718e-01  4.7768e-03 -1.4905e-02 -1.6774e-03 -1.2514e-04
  122  9.93665e-01  4.7748e-03 -1.4891e-02 -1.6752e-03 -1.2481e-04
  123  9.93612e-01  4.7729e-03 -1.4877e-02 -1.6731e-03 -1.2449e-04
  124  9.93559e-01  4.7710e-03 -1.4863e-02 -1.6709e-03 -1.2416e-04
  125  9.93505e-01  4.7690e-03 -1.4849e-02 -1.6688e-03 -1.2384e-04
  126  9.93452e-01  4.7671e-03 -1.4835e-02 -1.6666e-03 -1.2351e-04
  127  9.93399e-01  4.7652e-03 -1.4822e-02 -1.6645e-03 -1.2319e-04
  128  9.93345e-01  4.7632e-03 -1.4808e-02 -1.6623e-03 -1.2286e-04
  129  9.93292e-01  4.7613e-03 -1.4794e-02 -1.6601e-03 -1.2254e-04
  130  9.93238e-01  4.7593e-03 -1.4780e-02 -1.6580e-03 -1.2222e-04
  131  9.93185e-01  4.7574e-03 -1.4766e-02 -1.6558e-03 -1.2190e-04
  132  9.93132e-01  4.7555e-03 -1.4753e-02 -1.6537e-03 -1.2157e-04
  133  9.93078e-01  4.7535e-03 -1.4739e-02 -1.6515e-03 -1.2125e-04
  134  9.93025e-01  4.7516e-03 -1.4725e-02 -1.6494e-03 -1.2093e-04
  135  9.92971e-01  4.7496e-03 -1.4711e-02 -1.6473e-03 -1.2061e-04
  136  9.92918e-01  4.7477e-03 -1.4697e-02 -1.6451e-03 -1.2029e-04
  137  9.92864e-01  4.7457e-03 -1.4684e-02 -1.6430e-03 -1.1997e-04
  138  9.92810e-01  4.7438e-03 -1.4670e-02 -1.6408e-03 -1.1965e-04
  139  9.92757e-01  4.7418e-03 -1.4656e-02 -1.6387e-03 -1.1933e-04
  140  9.92703e-01  4.7399e-03 -1.4642e-02 -1.6366e-03 -1.1901e-04
  141  9.92650e-01  4.7379e-03 -1.4629e-02 -1.6344e-03 -1.1869e-04
  142  9.92596e-01  4.7359e-03 -1.4615e-02 -1.6323e-03 -1.1837e-04
  143  9.92542e-01  4.7340e-03 -1.4601e-02 -1.6302e-03 -1.1805e-04
  144  9.92489e-01  4.7320e-03 -1.4587e-02 -1.6280e-03 -1.1773e-04
  145  9.92435e-01  4.7300e-03 -1.4574e-02 -1.6259e-03 -1.1742e-04
  146  9.92381e-01  4.7281e-03 -1.4560e-02 -1.6238e-03 -1.1710e-04
  147  9.92327e-01  4.7261e-03 -1.4546e-02 -1.6216e-03 -1.1678e-04
  148  9.92274e-01  4.7241e-03 -1.4532e-02 -1.6195e-03 -1.1646e-04
  149  9.92220e-01  4.7222e-03 -1.4519e-02 -1.6174e-03 -1.1615e-04
  150  9.92166e-01  4.7202e-03 -1.4505e-02 -1.6153e-03 -1.1583e-04
  151  9.92112e-01  4.7182e-03 -1.4491e-02 -1.6132e-03 -1.1552e-04
  152  9.92058e-01  4.7163e-03 -1.4478e-02 -1.6110e-03 -1.1520e-04
  153  9.92005e-01  4.7143e-03 -1.4464e-02 -1.6089e-03 -1.1489e-04
  154  9.91951e-01  4.7123e-03 -1.4450e-02 -1.6068e-03 -1.1457e-04
  155  9.91897e-01  4.7103e-03 -1.4437e-02 -1.6047e-03 -1.1426e-04
  156  9.91843e-01  4.7083e-03 -1.4423e-02 -1.6026e-03 -1.1394e-04
  157  9.91789e-01  4.7063e-03 -1.4409e-02 -1.6005e-03 -1.1363e-04
  158  9.91735e-01  4.7044e-03 -1.4396e-02 -1.5984e-03 -1.1332e-04
  159  9.91681e-01  4.7024e-03 -1.4382e-02 -1.5962e-03 -1.1300e-04
  160  9.91627e-01  4.7004e-03 -1.4368e-02 -1.5941e-03 -1.1269e-04
  161  9.91573e-01  4.6984e-03 -1.4355e-02 -1.5920e-03 -1.1238e-04
  162  9.91519e-01  4.6964e-03 -1.4341e-02 -1.5899e-03 -1.1207e-04
  163  9.91465e-01  4.6944e-03 -1.4327e-02 -1.5878e-03 -1.1176e-04
  164  9.91411e-01  4.6924e-03 -1.4314e-02 -1.5857e-03 -1.1145e-04
  165  9.91357e-01  4.6904e-03 -1.4300e-02 -1.5836e-03 -1.1113e-04
  166  9.91303e-01  4.6884e-03 -1.4287e-02 -1.5815e-03 -1.1082e-04
  167  9.91248e-01  4.6864e-03 -1.4273e-02 -1.5794e-03 -1.1051e-04
  168  9.91194e-01  4.6844e-03 -1.4259e-02 -1.5773e-03 -1.1020e-04
  169  9.91140e-01  4.6824e-03 -1.4246e-02 -1.5752e-03 -1.0990e-04
  170  9.91086e-01  4.6804e-03 -1.4232e-02 -1.5732e-03 -1.0959e-04
  171  9.91032e-01  4.6784e-03 -1.4219e-02 -1.5711e-03 -1.0928e-04
  172  9.90977e-01  4.6764e-03 -1.4205e-02 -1.5690e-03 -1.0897e-04
  173  9.90923e-01  4.6744e-03 -1.4192e-02 -1.5669e-03 -1.0866e-04
  174  9.90869e-01  4.6724e-03 -1.4178e-02 -1.5648e-03 -1.0835e-04
  175  9.90815e-01  4.6704e-03 -1.4164e-02 -1.5627e-03 -1.0805e-04
  176  9.90760e-01  4.6683e-03 -1.4151e-02 -1.5606e-03 -1.0774e-04
  177  9.90706e-01  4.6663e-03 -1.4137e-02 -1.5586e-03 -1.0743e-04
  178  9.90652e-01  4.6643e-03 -1.4124e-02 -1.5565e-03 -1.0713e-04
  179  9.90597e-01  4.6623e-03 -1.4110e-02 -1.5544e-03 -1.0682e-04
  180  9.90543e-01  4.6603e-03 -1.4097e-02 -1.5523e-03 -1.0652e-04
  181  9.90488e-01  4.6582e-03 -1.4083e-02 -1.5502e-03 -1.0621e-04
  182  9.90434e-01  4.6562e-03 -1.4070e-02 -1.5482e-03 -1.0591e-04
  183  9.90380e-01  4.6542e-03 -1.4056e-02 -1.5461e-03 -1.0560e-04
  184  9.90325e-01  4.6522e-03 -1.4043e-02 -1.5440e-03 -1.0530e-04
  185  9.90271e-01  4.6501e-03 -1.4029e-02 -1.5420e-03 -1.0499e-04
  186  9.90216e-01  4.6481e-03 -1.4016e-02 -1.5399e-03 -1.0469e-04
  187  9.90162e-01  4.6461e-03 -1.4002e-02 -1.5378e-03 -1.0439e-04
  188  9.90107e-01  4.6440e-03 -1.3989e-02 -1.5358e-03 -1.0409e-04
  189  9.90052e-01  4.6420e-03 -1.3975e-02 -1.5337e-03 -1.0378e-04
  190  9.89998e-01  4.6400e-03 -1.3962e-02 -1.5316e-03 -1.0348e-04
  191  9.89943e-01  4.6379e-03 -1.3948e-02 -1.5296e-03 -1.0318e-04
  192  9.89889e-01  4.6359e-03 -1.3935e-02 -1.5275e-03 -1.0288e-04
  193  9.89834e-01  4.6339e-03 -1.3921e-02 -1.5255e-03 -1.0258e-04
  194  9.89779e-01  4.6318e-03 -1.3908e-02 -1.5234e-03 -1.0228e-04
  195  9.89725e-01  4.6298e-03 -1.3895e-02 -1.5213e-03 -1.0198e-04
  196  9.89670e-01  4.6277e-03 -1.3881e-02 -1.5193e-03 -1.0168e-04
  197  9.89615e-01  4.6257e-03 -1.3868e-02 -1.5172e-03 -1.0138e-04
  198  9.89560e-01  4.6236e-03 -1.3854e-02 -1.5152e-03 -1.0108e-04
  199  9.89506e-01  4.6216e-03 -1.3841e-02 -1.5131e-03 -1.0078e-04
  200  9.89451e-01  4.6195e-03 -1.3827e-02 -1.5111e-03 -1.0048e-04
  201  9.89396e-01  4.6175e-03 -1.3814e-02 -1.5090e-03 -1.0018e-04
  202  9.89341e-01  4.6154e-03 -1.3801e-02 -1.5070e-03 -9.9885e-05
  203  9.89286e-01  4.6134e-03 -1.3787e-02 -1.5050e-03 -9.9588e-05
  204  9.89232e-01  4.6113e-03 -1.3774e-02 -1.5029e-03 -9.9291e-05
  205  9.89177e-01  4.6092e-03 -1.3761e-02 -1.5009e-03 -9.8994e-05
  206  9.89122e-01  4.6072e-03 -1.3747e-02 -1.4988e-03 -9.8698e-05
  207  9.89067e-01  4.6051e-03 -1.3734e-02 -1.4968e-03 -9.8402e-05
  208  9.89012e-01  4.6030e-03 -1.3720e-02 -1.4948e-03 -9.8106e-05
  209  9.88957e-01  4.6010e-03 -1.3707e-02 -1.4927e-03 -9.7811e-05
  210  9.88902e-01  4.5989e-03 -1.3694e-02 -1.4907e-03 -9.7516e-05
  211  9.88847e-01  4.5968e-03 -1.3680e-02 -1.4887e-03 -9.7221e-05
  212  9.88792e-01  4.5948e-03 -1.3667e-02 -1.4866e-03 -9.6927e-05
  213  9.88737e-01  4.5927e-03 -1.3654e-02 -1.4846e-03 -9.6633e-05
  214  9.88682e-01  4.5906e-03 -1.3640e-02 -1.4826e-03 -9.6340e-05
  215  9.88627e-01  4.5885e-03 -1.3627e-02 -1.4806e-03 -9.6047e-05
  216  9.88572e-01  4.5865e-03 -1.3614e-02 -1.4785e-03 -9.5754e-05
  217  9.88517e-01  4.5844e-03 -1.3600e-02 -1.4765e-03 -9.5461e-05
  218  9.88461e-01  4.5823e-03 -1.3587e-02 -1.4745e-03 -9.5169e-05
  219  9.88406e-01  4.5802e-03 -1.3574e-02 -1.4725e-03 -9.4877e-05
  220  9.88351e-01  4.5781e-03 -1.3561e-02 -1.4705e-03 -9.4586e-05
  221  9.88296e-01  4.5760e-03 -1.3547e-02 -1.4684e-03 -9.4295e-05
  222  9.88241e-01  4.5740e-03 -1.3534e-02 -1.4664e-03 -9.4004e-05
  223  9.88185e-01  4.5719e-03 -1.3521e-02 -1.4644e-03 -9.3714e-05
  224  9.88130e-01  4.5698e-03 -1.3507e-02 -1.4624e-03 -9.3424e-05
  225  9.88075e-01  4.5677e-03 -1.3494e-02 -1.4604e-03 -9.3134e-05
  226  9.88020e-01  4.5656e-03 -1.3481e-02 -1.4584e-03 -9.2845e-05
  227  9.87964e-01  4.5635e-03 -1.3468e-02 -1.4564e-03 -9.2556e-05
  228  9.87909e-01  4.5614e-03 -1.3454e-02 -1.4544e-03 -9.2267e-05
  229  9.87854e-01  4.5593e-03 -1.3441e-02 -1.4524e-03 -9.1979e-05
  230  9.87798e-01  4.5572e-03 -1.3428e-02 -1.4504e-03 -9.1691e-05
  231  9.87743e-01  4.5551e-03 -1.3415e-02 -1.4484e-03 -9.1403e-05
  232  9.87687e-01  4.5530e-03 -1.3401e-02 -1.4464e-03 -9.1116e-05
  233  9.87632e-01  4.5509e-03 -1.3388e-02 -1.4444e-03 -9.0829e-05
  234  9.87577e-01  4.5488e-03 -1.3375e-02 -1.4424e-03 -9.0542e-05
  235  9.87521e-01  4.5467e-03 -1.3362e-02 -1.4404e-03 -9.0256e-05
  236  9.87466e-01  4.5446e-03 -1.3349e-02 -1.4384e-03 -8.9970e-05
  237  9.87410e-01  4.5425e-03 -1.3335e-02 -1.4364e-03 -8.9685e-05
  238  9.87355e-01  4.5403e-03 -1.3322e-02 -1.4344e-03 -8.9400e-05
  239  9.87299e-01  4.5382e-03 -1.3309e-02 -1.4324e-03 -8.9115e-05
  240  9.87243e-01  4.5361e-03 -1.3296e-02 -1.4304e-03 -8.8830e-05
  241  9.87188e-01  4.5340e-03 -1.3283e-02 -1.4284e-03 -8.8546e-05
  242  9.87132e-01  4.5319e-03 -1.3270e-02 -1.4264e-03 -8.8262e-05
  243  9.87077e-01  4.5298e-03 -1.3256e-02 -1.4245e-03 -8.7979e-05
  244  9.87021e-01  4.5276e-03 -1.3243e-02 -1.4225e-03 -8.7696e-05
  245  9.86965e-01  4.5255e-03 -1.3230e-02 -1.4205e-03 -8.7413e-05
  246  9.86910e-01  4.5234e-03 -1.3217e-02 -1.4185e-03 -8.7131e-05
  247  9.86854e-01  4.5213e-03 -1.3204e-02 -1.4165e-03 -8.6849e-05
  248  9.86798e-01  4.5191e-03 -1.3191e-02 -1.4146e-03 -8.6567e-05
  249  9.86742e-01  4.5170e-03 -1.3178e-02 -1.4126e-03 -8.6286e-05
  250  9.86687e-01  4.5149e-03 -1.3164e-02 -1.4106e-03 -8.6005e-05
  251  9.86631e-01  4.5127e-03 -1.3151e-02 -1.4086e-03 -8.5724e-05
  252  9.86575e-01  4.5106e-03 -1.3138e-02 -1.4067e-03 -8.5444e-05
  253  9.86519e-01  4.5085e-03 -1.3125e-02 -1.4047e-03 -8.5164e-05
  254  9.86463e-01  4.5063e-03 -1.3112e-02 -1.4027e-03 -8.4884e-05
  255  9.86408e-01  4.5042e-03 -1.3099e-02 -1.4008e-03 -8.4605e-05
  256  9.86352e-01  4.5020e-03 -1.3086e-02 -1.3988e-03 -8.4326e-05
  257  9.86296e-01  4.4999e-03 -1.3073e-02 -1.3968e-03 -8.4048e-05
  258  9.86240e-01  4.4978e-03 -1.3060e-02 -1.3949e-03 -8.3769e-05
  259  9.86184e-01  4.4956e-03 -1.3047e-02 -1.3929e-03 -8.3492e-05
  260  9.86128e-01  4.4935e-03 -1.3034e-02 -1.3910e-03 -8.3214e-05
  261  9.86072e-01  4.4913e-03 -1.3021e-02 -1.3890e-03 -8.2937e-05
  262  9.86016e-01  4.4892e-03 -1.3007e-02 -1.3871e-03 -8.2660e-05
  263  9.85960e-01  4.4870e-03 -1.2994e-02 -1.3851e-03 -8.2384e-05
  264  9.85904e-01  4.4849e-03 -1.2981e-02 -1.3831e-03 -8.2108e-05
  265  9.85848e-01  4.4827e-03 -1.2968e-02 -1.3812e-03 -8.1832e-05
  266  9.85792e-01  4.4805e-03 -1.2955e-02 -1.3792e-03 -8.1556e-05
  267  9.85736e-01  4.4784e-03 -1.2942e-02 -1.3773e-03 -8.1281e-05
  268  9.85680e-01  4.4762e-03 -1.2929e-02 -1.3754e-03 -8.1007e-05
  269  9.85623e-01  4.4741e-03 -1.2916e-02 -1.3734e-03 -8.0732e-05
  270  9.85567e-01  4.4719e-03 -1.2903e-02 -1.3715e-03 -8.0458e-05
  271  9.85511e-01  4.4697e-03 -1.2890e-02 -1.3695e-03 -8.0184e-05
  272  9.85455e-01  4.4676e-03 -1.2877e-02 -1.3676e-03 -7.9911e-05
  273  9.85399e-01  4.4654e-03 -1.2864e-02 -1.3656e-03 -7.9638e-05
  274  9.85342e-01  4.4632e-03 -1.2851e-02 -1.3637e-03 -7.9366e-05
  275  9.85286e-01  4.4611e-03 -1.2838e-02 -1.3618e-03 -7.9093e-05
  276  9.85230e-01  4.4589e-03 -1.2825e-02 -1.3598e-03 -7.8821e-05
  277  9.85174e-01  4.4567e-03 -1.2812e-02 -1.3579e-03 -7.8550e-05
  278  9.85117e-01  4.4545e-03 -1.2799e-02 -1.3560e-03 -7.8278e-05
  279  9.85061e-01  4.4524e-03 -1.2786e-02 -1.3540e-03 -7.8008e-05
  280  9.85005e-01  4.4502e-03 -1.2774e-02 -1.3521e-03 -7.7737e-05
  281  9.84948e-01  4.4480e-03 -1.2761e-02 -1.3502e-03 -7.7467e-05
  282  9.84892e-01  4.4458e-03 -1.2748e-02 -1.3483e-03 -7.7197e-05
  283  9.84836e-01  4.4436e-03 -1.2735e-02 -1.3463e-03 -7.6927e-05
  284  9.84779e-01  4.4415e-03 -1.2722e-02 -1.3444e-03 -7.6658e-05
  285  9.84723e-01  4.4393e-03 -1.2709e-02 -1.3425e-03 -7.6389e-05
  286  9.84666e-01  4.4371e-03 -1.2696e-02 -1.3406e-03 -7.6121e-05
  287  9.84610e-01  4.4349e-03 -1.2683e-02 -1.3387e-03 -7.5853e-05
  288  9.84553e-01  4.4327e-03 -1.2670e-02 -1.3367e-03 -7.5585e-05
  289  9.84497e-01  4.4305e-03 -1.2657e-02 -1.3348e-03 -7.5318e-05
  290  9.84440e-01  4.4283e-03 -1.2644e-02 -1.3329e-03 -7.5051e-05
  291  9.84384e-01  4.4261e-03 -1.2632e-02 -1.3310e-03 -7.4784e-05
  292  9.84327e-01  4.4239e-03 -1.2619e-02 -1.3291e-03 -7.4517e-05
  293  9.84270e-01  4.4217e-03 -1.2606e-02 -1.3272e-03 -7.4251e-05
  294  9.84214e-01  4.4195e-03 -1.2593e-02 -1.3253e-03 -7.3986e-05
  295  9.84157e-01  4.4173e-03 -1.2580e-02 -1.3234e-03 -7.3720e-05
