# 150608 2014 pa1 instant
# pivot_ell = 1700
# norm_ell = 0
# solid angle = 191.97 nsr
0.000000  1.00000e+00
0.001042  9.94309e-01
0.002083  9.77408e-01
0.003125  9.49807e-01
0.004167  9.12329e-01
0.005208  8.66077e-01
0.006250  8.12385e-01
0.007292  7.52758e-01
0.008333  6.88816e-01
0.009375  6.22223e-01
0.010417  5.54624e-01
0.011458  4.87582e-01
0.012500  4.22526e-01
0.013542  3.60705e-01
0.014583  3.03151e-01
0.015625  2.50658e-01
0.016667  2.03775e-01
0.017708  1.62802e-01
0.018750  1.27807e-01
0.019792  9.86485e-02
0.020833  7.50040e-02
0.021875  5.64081e-02
0.022917  4.22902e-02
0.023958  3.20136e-02
0.025000  2.49141e-02
0.026042  2.03342e-02
0.027083  1.76524e-02
0.028125  1.63070e-02
0.029167  1.58127e-02
0.030208  1.57708e-02
0.031250  1.58727e-02
0.032292  1.58979e-02
0.033333  1.57073e-02
0.034375  1.52319e-02
0.035417  1.44606e-02
0.036458  1.34254e-02
0.037500  1.21876e-02
0.038542  1.08240e-02
0.039583  9.41581e-03
0.040625  8.03893e-03
0.041667  6.75729e-03
0.042708  5.61855e-03
0.043750  4.65232e-03
0.044792  3.87038e-03
0.045833  3.26872e-03
0.046875  2.83061e-03
0.047917  2.53045e-03
0.048958  2.33768e-03
0.050000  2.22055e-03
0.051042  2.14928e-03
0.052083  2.09847e-03
0.053125  2.04861e-03
0.054167  1.98675e-03
0.055208  1.90632e-03
0.056250  1.80639e-03
0.057292  1.69039e-03
0.058333  1.56468e-03
0.059375  1.43699e-03
0.060417  1.31503e-03
0.061458  1.20541e-03
0.062500  1.11277e-03
0.063542  1.03946e-03
0.064583  9.85444e-04
0.065625  9.48607e-04
0.066667  9.25234e-04
0.067708  9.10671e-04
0.068750  9.00009e-04
0.069792  8.88717e-04
0.070833  8.73157e-04
0.071875  8.50930e-04
0.072917  8.21027e-04
0.073958  7.83789e-04
0.075000  7.40713e-04
0.076042  6.94124e-04
0.077083  6.46785e-04
0.078125  6.01492e-04
0.079167  5.60704e-04
0.080208  5.26251e-04
0.081250  4.99153e-04
0.082292  4.79550e-04
0.083333  4.66752e-04
0.084375  4.59391e-04
0.085417  4.55637e-04
0.086458  4.53464e-04
0.087500  4.50905e-04
0.088542  4.46294e-04
0.089583  4.38441e-04
0.090625  4.26741e-04
0.091667  4.11198e-04
0.092708  3.92378e-04
0.093750  3.71291e-04
0.094792  3.49230e-04
0.095833  3.27590e-04
0.096875  3.07678e-04
0.097917  2.90560e-04
0.098958  2.76938e-04
0.100000  2.67088e-04
0.101042  2.60844e-04
0.102083  2.57653e-04
0.103125  2.56661e-04
0.104167  2.56832e-04
0.105208  2.57093e-04
0.106250  2.56458e-04
0.107292  2.54150e-04
0.108333  2.49676e-04
0.109375  2.42875e-04
0.110417  2.33912e-04
0.111458  2.23242e-04
0.112500  2.11535e-04
0.113542  1.99577e-04
0.114583  1.88173e-04
0.115625  1.78039e-04
0.116667  1.69720e-04
0.117708  1.63535e-04
0.118750  1.59543e-04
0.119792  1.57552e-04
0.120833  1.57152e-04
0.121875  1.57778e-04
0.122917  1.58784e-04
0.123958  1.59527e-04
0.125000  1.59443e-04
0.126042  1.58114e-04
0.127083  1.55306e-04
0.128125  1.50997e-04
0.129167  1.45361e-04
0.130208  1.38740e-04
0.131250  1.31595e-04
0.132292  1.24443e-04
0.133333  1.17791e-04
0.134375  1.12075e-04
0.135417  1.07605e-04
0.136458  1.04540e-04
0.137500  1.02868e-04
0.138542  1.02419e-04
0.139583  1.02889e-04
0.140625  1.03883e-04
0.141667  1.04970e-04
0.142708  1.05730e-04
0.143750  1.05810e-04
0.144792  1.04963e-04
0.145833  1.03069e-04
0.146875  1.00152e-04
0.147917  9.63636e-05
0.148958  9.19636e-05
0.150000  8.72830e-05
0.151042  8.26804e-05
0.152083  7.84976e-05
0.153125  7.50180e-05
0.154167  7.24351e-05
0.155208  7.08312e-05
0.156250  7.01720e-05
0.157292  7.03147e-05
0.158333  7.10290e-05
0.159375  7.20284e-05
0.160417  7.30064e-05
0.161458  7.36744e-05
0.162500  7.37962e-05
0.163542  7.32141e-05
0.164583  7.18656e-05
0.165625  6.97873e-05
0.166667  6.71069e-05
0.167708  6.40249e-05
0.168750  6.07870e-05
0.169792  5.76535e-05
0.170833  5.48664e-05
0.171875  5.26215e-05
0.172917  5.10452e-05
0.173958  5.01820e-05
0.175000  4.99914e-05
0.176042  5.03557e-05
0.177083  5.10964e-05
0.178125  5.19976e-05
0.179167  5.28336e-05
0.180208  5.33960e-05
0.181250  5.35187e-05
0.182292  5.30961e-05
0.183333  5.20946e-05
0.184375  5.05537e-05
0.185417  4.85794e-05
0.186458  4.63291e-05
0.187500  4.39912e-05
0.188542  4.17610e-05
0.189583  3.98170e-05
0.190625  3.83000e-05
0.191667  3.72968e-05
0.192708  3.68313e-05
0.193750  3.68635e-05
0.194792  3.72962e-05
0.195833  3.79879e-05
0.196875  3.87716e-05
0.197917  3.94755e-05
0.198958  3.99437e-05
0.200000  4.00546e-05
0.201042  3.97347e-05
0.202083  3.89660e-05
0.203125  3.77865e-05
0.204167  3.62845e-05
0.205208  3.45859e-05
0.206250  3.28386e-05
0.207292  3.11934e-05
0.208333  2.97863e-05
0.209375  2.87220e-05
0.210417  2.80623e-05
0.211458  2.78195e-05
0.212500  2.79565e-05
0.213542  2.83924e-05
0.214583  2.90133e-05
0.215625  2.96867e-05
0.216667  3.02785e-05
0.217708  3.06684e-05
0.218750  3.07648e-05
0.219792  3.05145e-05
0.220833  2.99087e-05
0.221875  2.89822e-05
0.222917  2.78089e-05
0.223958  2.64914e-05
0.225000  2.51481e-05
0.226042  2.38982e-05
0.227083  2.28480e-05
0.228125  2.20777e-05
0.229167  2.16325e-05
0.230208  2.15181e-05
0.231250  2.17011e-05
0.232292  2.21135e-05
0.233333  2.26618e-05
0.234375  2.32393e-05
0.235417  2.37387e-05
0.236458  2.40651e-05
0.237500  2.41477e-05
0.238542  2.39468e-05
0.239583  2.34589e-05
0.240625  2.27154e-05
0.241667  2.17787e-05
0.242708  2.07333e-05
0.243750  1.96760e-05
0.244792  1.87028e-05
0.245833  1.78986e-05
0.246875  1.73262e-05
0.247917  1.70196e-05
0.248958  1.69807e-05
0.250000  1.71795e-05
0.251042  1.75585e-05
0.252083  1.80401e-05
0.253125  1.85365e-05
0.254167  1.89604e-05
0.255208  1.92358e-05
0.256250  1.93061e-05
0.257292  1.91416e-05
0.258333  1.87415e-05
0.259375  1.81341e-05
0.260417  1.73723e-05
0.261458  1.65269e-05
0.262500  1.56779e-05
0.263542  1.49043e-05
0.264583  1.42749e-05
0.265625  1.38398e-05
0.266667  1.36254e-05
0.267708  1.36312e-05
0.268750  1.38303e-05
0.269792  1.41739e-05
0.270833  1.45965e-05
0.271875  1.50251e-05
0.272917  1.53876e-05
0.273958  1.56216e-05
0.275000  1.56817e-05
0.276042  1.55446e-05
0.277083  1.52116e-05
0.278125  1.47076e-05
0.279167  1.40783e-05
0.280208  1.33834e-05
0.281250  1.26901e-05
0.282292  1.20641e-05
0.283333  1.15620e-05
0.284375  1.12248e-05
0.285417  1.10732e-05
0.286458  1.11051e-05
0.287500  1.12970e-05
0.288542  1.16064e-05
0.289583  1.19779e-05
0.290625  1.23500e-05
0.291667  1.26621e-05
0.292708  1.28626e-05
0.293750  1.29141e-05
0.294792  1.27983e-05
0.295833  1.25174e-05
0.296875  1.20938e-05
0.297917  1.15668e-05
0.298958  1.09877e-05
0.300000  1.04131e-05
0.301042  9.89858e-06
0.302083  9.49152e-06
0.303125  9.22575e-06
0.304167  9.11767e-06
0.305208  9.16460e-06
0.306250  9.34544e-06
0.307292  9.62348e-06
0.308333  9.95115e-06
0.309375  1.02759e-05
0.310417  1.05466e-05
0.311458  1.07196e-05
0.312500  1.07640e-05
0.313542  1.06650e-05
0.314583  1.04255e-05
0.315625  1.00654e-05
0.316667  9.61885e-06
0.317708  9.13013e-06
0.318750  8.64787e-06
0.319792  8.21929e-06
0.320833  7.88450e-06
0.321875  7.67181e-06
0.322917  7.59451e-06
0.323958  7.64948e-06
0.325000  7.81791e-06
0.326042  8.06775e-06
0.327083  8.35781e-06
0.328125  8.64286e-06
0.329167  8.87911e-06
0.330208  9.02949e-06
0.331250  9.06797e-06
0.332292  8.98250e-06
0.333333  8.77627e-06
0.334375  8.46704e-06
0.335417  8.08481e-06
0.336458  7.66798e-06
0.337500  7.25864e-06
0.338542  6.89739e-06
0.339583  6.61853e-06
0.340625  6.44602e-06
0.341667  6.39076e-06
0.342708  6.44945e-06
0.343750  6.60527e-06
0.344792  6.83004e-06
0.345833  7.08783e-06
0.346875  7.33939e-06
0.347917  7.54689e-06
0.348958  7.67849e-06
0.350000  7.71204e-06
0.351042  7.63760e-06
0.352083  7.45849e-06
0.353125  7.19060e-06
0.354167  6.86040e-06
0.355208  6.50152e-06
0.356250  6.15060e-06
0.357292  5.84289e-06
0.358333  5.60798e-06
0.359375  5.46637e-06
0.360417  5.42708e-06
0.361458  5.48680e-06
0.362500  5.63042e-06
0.363542  5.83303e-06
0.364583  6.06308e-06
0.365625  6.28622e-06
0.366667  6.46954e-06
0.367708  6.58542e-06
0.368750  6.61485e-06
0.369792  6.54954e-06
0.370833  6.39279e-06
0.371875  6.15890e-06
0.372917  5.87132e-06
0.373958  5.55970e-06
0.375000  5.25620e-06
0.376042  4.99163e-06
0.377083  4.79175e-06
0.378125  4.67422e-06
0.379167  4.64663e-06
0.380208  4.70571e-06
0.381250  4.83785e-06
0.382292  5.02093e-06
0.383333  5.22704e-06
0.384375  5.42595e-06
0.385417  5.58877e-06
0.386458  5.69141e-06
0.387500  5.71738e-06
0.388542  5.65970e-06
0.389583  5.52158e-06
0.390625  5.31593e-06
0.391667  5.06366e-06
0.392708  4.79103e-06
0.393750  4.52646e-06
0.394792  4.29707e-06
0.395833  4.12543e-06
0.396875  4.02692e-06
0.397917  4.00797e-06
0.398958  4.06540e-06
0.400000  4.18692e-06
0.401042  4.35277e-06
0.402083  4.53814e-06
0.403125  4.71627e-06
0.404167  4.86163e-06
0.405208  4.95303e-06
0.406250  4.97607e-06
0.407292  4.92482e-06
0.408333  4.80238e-06
0.409375  4.62043e-06
0.410417  4.39766e-06
0.411458  4.15752e-06
0.412500  3.92524e-06
0.413542  3.72484e-06
0.414583  3.57625e-06
0.415625  3.49293e-06
0.416667  3.48039e-06
0.417708  3.53557e-06
0.418750  3.64736e-06
0.419792  3.79801e-06
0.420833  3.96536e-06
0.421875  4.12556e-06
0.422917  4.25593e-06
0.423958  4.33773e-06
0.425000  4.35829e-06
0.426042  4.31252e-06
0.427083  4.20339e-06
0.428125  4.04147e-06
0.429167  3.84360e-06
0.430208  3.63076e-06
0.431250  3.42551e-06
0.432292  3.24924e-06
0.433333  3.11964e-06
0.434375  3.04859e-06
0.435417  3.04083e-06
0.436458  3.09345e-06
0.437500  3.19637e-06
0.438542  3.33358e-06
0.439583  3.48520e-06
0.440625  3.62985e-06
0.441667  3.74730e-06
0.442708  3.82085e-06
0.443750  3.83929e-06
0.444792  3.79822e-06
0.445833  3.70045e-06
0.446875  3.55561e-06
0.447917  3.37891e-06
0.448958  3.18922e-06
0.450000  3.00679e-06
0.451042  2.85077e-06
0.452083  2.73696e-06
0.453125  2.67590e-06
0.454167  2.67172e-06
0.455208  2.72165e-06
0.456250  2.81651e-06
0.457292  2.94182e-06
0.458333  3.07963e-06
0.459375  3.21075e-06
0.460417  3.31698e-06
0.461458  3.38340e-06
0.462500  3.40002e-06
0.463542  3.36301e-06
0.464583  3.27503e-06
0.465625  3.14486e-06
0.466667  2.98628e-06
0.467708  2.81636e-06
0.468750  2.65334e-06
0.469792  2.51446e-06
0.470833  2.41389e-06
0.471875  2.36106e-06
0.472917  2.35954e-06
0.473958  2.40676e-06
0.475000  2.49430e-06
0.476042  2.60904e-06
0.477083  2.73472e-06
0.478125  2.85398e-06
0.479167  2.95044e-06
0.480208  3.01066e-06
0.481250  3.02571e-06
0.482292  2.99223e-06
0.483333  2.91272e-06
0.484375  2.79522e-06
0.485417  2.65227e-06
0.486458  2.49933e-06
0.487500  2.35295e-06
0.488542  2.22869e-06
0.489583  2.13932e-06
0.490625  2.09329e-06
0.491667  2.09377e-06
0.492708  2.13831e-06
0.493750  2.21923e-06
0.494792  2.32455e-06
0.495833  2.43950e-06
0.496875  2.54835e-06
0.497917  2.63624e-06
0.498958  2.69105e-06
0.500000  2.70474e-06
