# 140206 2013 ar1 deep6 jitter
# jitter = 13.30 +- 2.00 arcsec
# pivot_ell = 1700
# norm_ell = 0
# solid angle = 223.69 nsr
    0  1.00000e+00  2.23e-03  1.68e-02  2.19e-03  3.29e-03
    1  9.99965e-01  2.23e-03  1.68e-02  2.19e-03  3.29e-03
    2  9.99930e-01  2.23e-03  1.68e-02  2.19e-03  3.29e-03
    3  9.99895e-01  2.23e-03  1.68e-02  2.19e-03  3.29e-03
    4  9.99852e-01  2.23e-03  1.68e-02  2.18e-03  3.28e-03
    5  9.99817e-01  2.23e-03  1.68e-02  2.18e-03  3.28e-03
    6  9.99773e-01  2.23e-03  1.68e-02  2.18e-03  3.28e-03
    7  9.99739e-01  2.23e-03  1.68e-02  2.18e-03  3.28e-03
    8  9.99695e-01  2.23e-03  1.68e-02  2.18e-03  3.27e-03
    9  9.99660e-01  2.23e-03  1.68e-02  2.18e-03  3.27e-03
   10  9.99616e-01  2.23e-03  1.68e-02  2.18e-03  3.27e-03
   11  9.99573e-01  2.23e-03  1.68e-02  2.18e-03  3.27e-03
   12  9.99529e-01  2.23e-03  1.68e-02  2.18e-03  3.27e-03
   13  9.99494e-01  2.23e-03  1.68e-02  2.18e-03  3.26e-03
   14  9.99451e-01  2.23e-03  1.67e-02  2.18e-03  3.26e-03
   15  9.99407e-01  2.23e-03  1.67e-02  2.17e-03  3.26e-03
   16  9.99363e-01  2.23e-03  1.67e-02  2.17e-03  3.25e-03
   17  9.99320e-01  2.23e-03  1.67e-02  2.17e-03  3.25e-03
   18  9.99276e-01  2.23e-03  1.67e-02  2.17e-03  3.25e-03
   19  9.99233e-01  2.23e-03  1.67e-02  2.17e-03  3.25e-03
   20  9.99189e-01  2.23e-03  1.67e-02  2.17e-03  3.25e-03
   21  9.99137e-01  2.23e-03  1.67e-02  2.17e-03  3.24e-03
   22  9.99093e-01  2.23e-03  1.67e-02  2.17e-03  3.24e-03
   23  9.99049e-01  2.23e-03  1.67e-02  2.17e-03  3.24e-03
   24  9.99006e-01  2.23e-03  1.67e-02  2.17e-03  3.24e-03
   25  9.98953e-01  2.22e-03  1.67e-02  2.17e-03  3.23e-03
   26  9.98910e-01  2.22e-03  1.67e-02  2.16e-03  3.23e-03
   27  9.98866e-01  2.22e-03  1.66e-02  2.16e-03  3.23e-03
   28  9.98814e-01  2.22e-03  1.66e-02  2.16e-03  3.23e-03
   29  9.98770e-01  2.22e-03  1.66e-02  2.16e-03  3.22e-03
   30  9.98717e-01  2.22e-03  1.66e-02  2.16e-03  3.22e-03
   31  9.98674e-01  2.22e-03  1.66e-02  2.16e-03  3.22e-03
   32  9.98621e-01  2.22e-03  1.66e-02  2.16e-03  3.21e-03
   33  9.98569e-01  2.22e-03  1.66e-02  2.16e-03  3.21e-03
   34  9.98517e-01  2.22e-03  1.66e-02  2.16e-03  3.21e-03
   35  9.98473e-01  2.22e-03  1.66e-02  2.16e-03  3.21e-03
   36  9.98420e-01  2.22e-03  1.66e-02  2.15e-03  3.20e-03
   37  9.98368e-01  2.22e-03  1.66e-02  2.15e-03  3.20e-03
   38  9.98316e-01  2.22e-03  1.65e-02  2.15e-03  3.20e-03
   39  9.98263e-01  2.22e-03  1.65e-02  2.15e-03  3.20e-03
   40  9.98211e-01  2.22e-03  1.65e-02  2.15e-03  3.19e-03
   41  9.98158e-01  2.22e-03  1.65e-02  2.15e-03  3.19e-03
   42  9.98106e-01  2.22e-03  1.65e-02  2.15e-03  3.19e-03
   43  9.98053e-01  2.22e-03  1.65e-02  2.15e-03  3.19e-03
   44  9.98001e-01  2.22e-03  1.65e-02  2.14e-03  3.18e-03
   45  9.97948e-01  2.22e-03  1.65e-02  2.14e-03  3.18e-03
   46  9.97896e-01  2.22e-03  1.65e-02  2.14e-03  3.18e-03
   47  9.97844e-01  2.22e-03  1.65e-02  2.14e-03  3.17e-03
   48  9.97791e-01  2.22e-03  1.65e-02  2.14e-03  3.17e-03
   49  9.97730e-01  2.22e-03  1.64e-02  2.14e-03  3.17e-03
   50  9.97677e-01  2.22e-03  1.64e-02  2.14e-03  3.16e-03
   51  9.97625e-01  2.22e-03  1.64e-02  2.14e-03  3.16e-03
   52  9.97564e-01  2.22e-03  1.64e-02  2.14e-03  3.16e-03
   53  9.97511e-01  2.22e-03  1.64e-02  2.14e-03  3.16e-03
   54  9.97450e-01  2.22e-03  1.64e-02  2.13e-03  3.15e-03
   55  9.97398e-01  2.22e-03  1.64e-02  2.13e-03  3.15e-03
   56  9.97336e-01  2.22e-03  1.64e-02  2.13e-03  3.15e-03
   57  9.97284e-01  2.22e-03  1.64e-02  2.13e-03  3.14e-03
   58  9.97223e-01  2.22e-03  1.64e-02  2.13e-03  3.14e-03
   59  9.97170e-01  2.22e-03  1.64e-02  2.13e-03  3.14e-03
   60  9.97109e-01  2.22e-03  1.63e-02  2.13e-03  3.13e-03
   61  9.97048e-01  2.22e-03  1.63e-02  2.13e-03  3.13e-03
   62  9.96995e-01  2.22e-03  1.63e-02  2.12e-03  3.13e-03
   63  9.96934e-01  2.22e-03  1.63e-02  2.12e-03  3.13e-03
   64  9.96873e-01  2.22e-03  1.63e-02  2.12e-03  3.12e-03
   65  9.96811e-01  2.22e-03  1.63e-02  2.12e-03  3.12e-03
   66  9.96750e-01  2.22e-03  1.63e-02  2.12e-03  3.12e-03
   67  9.96689e-01  2.22e-03  1.63e-02  2.12e-03  3.11e-03
   68  9.96636e-01  2.22e-03  1.63e-02  2.12e-03  3.11e-03
   69  9.96575e-01  2.22e-03  1.63e-02  2.12e-03  3.11e-03
   70  9.96514e-01  2.22e-03  1.62e-02  2.12e-03  3.10e-03
   71  9.96453e-01  2.22e-03  1.62e-02  2.11e-03  3.10e-03
   72  9.96391e-01  2.22e-03  1.62e-02  2.11e-03  3.10e-03
   73  9.96330e-01  2.22e-03  1.62e-02  2.11e-03  3.09e-03
   74  9.96260e-01  2.22e-03  1.62e-02  2.11e-03  3.09e-03
   75  9.96199e-01  2.22e-03  1.62e-02  2.11e-03  3.09e-03
   76  9.96137e-01  2.21e-03  1.62e-02  2.11e-03  3.08e-03
   77  9.96076e-01  2.21e-03  1.62e-02  2.11e-03  3.08e-03
   78  9.96015e-01  2.21e-03  1.62e-02  2.11e-03  3.08e-03
   79  9.95953e-01  2.21e-03  1.61e-02  2.10e-03  3.07e-03
   80  9.95883e-01  2.21e-03  1.61e-02  2.10e-03  3.07e-03
   81  9.95822e-01  2.21e-03  1.61e-02  2.10e-03  3.07e-03
   82  9.95761e-01  2.21e-03  1.61e-02  2.10e-03  3.06e-03
   83  9.95691e-01  2.21e-03  1.61e-02  2.10e-03  3.06e-03
   84  9.95629e-01  2.21e-03  1.61e-02  2.10e-03  3.06e-03
   85  9.95559e-01  2.21e-03  1.61e-02  2.10e-03  3.05e-03
   86  9.95498e-01  2.21e-03  1.61e-02  2.09e-03  3.05e-03
   87  9.95437e-01  2.21e-03  1.61e-02  2.09e-03  3.05e-03
   88  9.95367e-01  2.21e-03  1.61e-02  2.09e-03  3.04e-03
   89  9.95305e-01  2.21e-03  1.60e-02  2.09e-03  3.04e-03
   90  9.95235e-01  2.21e-03  1.60e-02  2.09e-03  3.04e-03
   91  9.95174e-01  2.21e-03  1.60e-02  2.09e-03  3.03e-03
   92  9.95104e-01  2.21e-03  1.60e-02  2.09e-03  3.03e-03
   93  9.95034e-01  2.21e-03  1.60e-02  2.08e-03  3.03e-03
   94  9.94972e-01  2.21e-03  1.60e-02  2.08e-03  3.02e-03
   95  9.94902e-01  2.21e-03  1.60e-02  2.08e-03  3.02e-03
   96  9.94832e-01  2.21e-03  1.60e-02  2.08e-03  3.01e-03
   97  9.94771e-01  2.21e-03  1.59e-02  2.08e-03  3.01e-03
   98  9.94701e-01  2.21e-03  1.59e-02  2.08e-03  3.01e-03
   99  9.94631e-01  2.21e-03  1.59e-02  2.08e-03  3.00e-03
  100  9.94560e-01  2.21e-03  1.59e-02  2.08e-03  3.00e-03
  101  9.94499e-01  2.21e-03  1.59e-02  2.07e-03  3.00e-03
  102  9.94429e-01  2.21e-03  1.59e-02  2.07e-03  2.99e-03
  103  9.94359e-01  2.21e-03  1.59e-02  2.07e-03  2.99e-03
  104  9.94289e-01  2.21e-03  1.59e-02  2.07e-03  2.99e-03
  105  9.94219e-01  2.21e-03  1.59e-02  2.07e-03  2.98e-03
  106  9.94148e-01  2.21e-03  1.58e-02  2.07e-03  2.98e-03
  107  9.94078e-01  2.21e-03  1.58e-02  2.07e-03  2.98e-03
  108  9.94008e-01  2.21e-03  1.58e-02  2.06e-03  2.97e-03
  109  9.93947e-01  2.21e-03  1.58e-02  2.06e-03  2.97e-03
  110  9.93877e-01  2.20e-03  1.58e-02  2.06e-03  2.97e-03
  111  9.93806e-01  2.20e-03  1.58e-02  2.06e-03  2.96e-03
  112  9.93728e-01  2.20e-03  1.58e-02  2.06e-03  2.96e-03
  113  9.93657e-01  2.20e-03  1.58e-02  2.06e-03  2.95e-03
  114  9.93587e-01  2.20e-03  1.58e-02  2.05e-03  2.95e-03
  115  9.93517e-01  2.20e-03  1.57e-02  2.05e-03  2.95e-03
  116  9.93447e-01  2.20e-03  1.57e-02  2.05e-03  2.94e-03
  117  9.93377e-01  2.20e-03  1.57e-02  2.05e-03  2.94e-03
  118  9.93307e-01  2.20e-03  1.57e-02  2.05e-03  2.94e-03
  119  9.93236e-01  2.20e-03  1.57e-02  2.05e-03  2.93e-03
  120  9.93166e-01  2.20e-03  1.57e-02  2.05e-03  2.93e-03
  121  9.93087e-01  2.20e-03  1.57e-02  2.04e-03  2.93e-03
  122  9.93017e-01  2.20e-03  1.57e-02  2.04e-03  2.92e-03
  123  9.92947e-01  2.20e-03  1.56e-02  2.04e-03  2.92e-03
  124  9.92877e-01  2.20e-03  1.56e-02  2.04e-03  2.91e-03
  125  9.92807e-01  2.20e-03  1.56e-02  2.04e-03  2.91e-03
  126  9.92728e-01  2.20e-03  1.56e-02  2.04e-03  2.91e-03
  127  9.92657e-01  2.20e-03  1.56e-02  2.04e-03  2.90e-03
  128  9.92587e-01  2.20e-03  1.56e-02  2.03e-03  2.90e-03
  129  9.92508e-01  2.20e-03  1.56e-02  2.03e-03  2.89e-03
  130  9.92438e-01  2.20e-03  1.56e-02  2.03e-03  2.89e-03
  131  9.92368e-01  2.20e-03  1.56e-02  2.03e-03  2.89e-03
  132  9.92289e-01  2.20e-03  1.55e-02  2.03e-03  2.88e-03
  133  9.92219e-01  2.20e-03  1.55e-02  2.03e-03  2.88e-03
  134  9.92148e-01  2.20e-03  1.55e-02  2.03e-03  2.88e-03
  135  9.92069e-01  2.20e-03  1.55e-02  2.02e-03  2.87e-03
  136  9.91999e-01  2.20e-03  1.55e-02  2.02e-03  2.87e-03
  137  9.91920e-01  2.20e-03  1.55e-02  2.02e-03  2.87e-03
  138  9.91850e-01  2.20e-03  1.55e-02  2.02e-03  2.86e-03
  139  9.91771e-01  2.19e-03  1.55e-02  2.02e-03  2.86e-03
  140  9.91701e-01  2.19e-03  1.54e-02  2.02e-03  2.85e-03
  141  9.91622e-01  2.19e-03  1.54e-02  2.02e-03  2.85e-03
  142  9.91551e-01  2.19e-03  1.54e-02  2.01e-03  2.85e-03
  143  9.91481e-01  2.19e-03  1.54e-02  2.01e-03  2.84e-03
  144  9.91402e-01  2.19e-03  1.54e-02  2.01e-03  2.84e-03
  145  9.91332e-01  2.19e-03  1.54e-02  2.01e-03  2.84e-03
  146  9.91253e-01  2.19e-03  1.54e-02  2.01e-03  2.83e-03
  147  9.91174e-01  2.19e-03  1.54e-02  2.01e-03  2.83e-03
  148  9.91104e-01  2.19e-03  1.53e-02  2.01e-03  2.82e-03
  149  9.91025e-01  2.19e-03  1.53e-02  2.00e-03  2.82e-03
  150  9.90954e-01  2.19e-03  1.53e-02  2.00e-03  2.82e-03
  151  9.90875e-01  2.19e-03  1.53e-02  2.00e-03  2.81e-03
  152  9.90796e-01  2.19e-03  1.53e-02  2.00e-03  2.81e-03
  153  9.90726e-01  2.19e-03  1.53e-02  2.00e-03  2.81e-03
  154  9.90647e-01  2.19e-03  1.53e-02  2.00e-03  2.80e-03
  155  9.90576e-01  2.19e-03  1.53e-02  1.99e-03  2.80e-03
  156  9.90497e-01  2.19e-03  1.52e-02  1.99e-03  2.79e-03
  157  9.90418e-01  2.19e-03  1.52e-02  1.99e-03  2.79e-03
  158  9.90348e-01  2.19e-03  1.52e-02  1.99e-03  2.79e-03
  159  9.90269e-01  2.19e-03  1.52e-02  1.99e-03  2.78e-03
  160  9.90199e-01  2.19e-03  1.52e-02  1.99e-03  2.78e-03
  161  9.90120e-01  2.19e-03  1.52e-02  1.99e-03  2.78e-03
  162  9.90041e-01  2.19e-03  1.52e-02  1.98e-03  2.77e-03
  163  9.89970e-01  2.19e-03  1.52e-02  1.98e-03  2.77e-03
  164  9.89891e-01  2.18e-03  1.51e-02  1.98e-03  2.76e-03
  165  9.89812e-01  2.18e-03  1.51e-02  1.98e-03  2.76e-03
  166  9.89733e-01  2.18e-03  1.51e-02  1.98e-03  2.76e-03
  167  9.89663e-01  2.18e-03  1.51e-02  1.98e-03  2.75e-03
  168  9.89583e-01  2.18e-03  1.51e-02  1.98e-03  2.75e-03
  169  9.89504e-01  2.18e-03  1.51e-02  1.97e-03  2.75e-03
  170  9.89434e-01  2.18e-03  1.51e-02  1.97e-03  2.74e-03
  171  9.89355e-01  2.18e-03  1.51e-02  1.97e-03  2.74e-03
  172  9.89276e-01  2.18e-03  1.50e-02  1.97e-03  2.73e-03
  173  9.89205e-01  2.18e-03  1.50e-02  1.97e-03  2.73e-03
  174  9.89126e-01  2.18e-03  1.50e-02  1.97e-03  2.73e-03
  175  9.89047e-01  2.18e-03  1.50e-02  1.96e-03  2.72e-03
  176  9.88968e-01  2.18e-03  1.50e-02  1.96e-03  2.72e-03
  177  9.88898e-01  2.18e-03  1.50e-02  1.96e-03  2.72e-03
  178  9.88818e-01  2.18e-03  1.50e-02  1.96e-03  2.71e-03
  179  9.88739e-01  2.18e-03  1.50e-02  1.96e-03  2.71e-03
  180  9.88660e-01  2.18e-03  1.49e-02  1.96e-03  2.70e-03
  181  9.88590e-01  2.18e-03  1.49e-02  1.95e-03  2.70e-03
  182  9.88511e-01  2.18e-03  1.49e-02  1.95e-03  2.70e-03
  183  9.88431e-01  2.18e-03  1.49e-02  1.95e-03  2.69e-03
  184  9.88352e-01  2.18e-03  1.49e-02  1.95e-03  2.69e-03
  185  9.88282e-01  2.18e-03  1.49e-02  1.95e-03  2.69e-03
  186  9.88203e-01  2.18e-03  1.49e-02  1.95e-03  2.68e-03
  187  9.88123e-01  2.17e-03  1.49e-02  1.94e-03  2.68e-03
  188  9.88044e-01  2.17e-03  1.48e-02  1.94e-03  2.67e-03
  189  9.87974e-01  2.17e-03  1.48e-02  1.94e-03  2.67e-03
  190  9.87895e-01  2.17e-03  1.48e-02  1.94e-03  2.67e-03
  191  9.87815e-01  2.17e-03  1.48e-02  1.94e-03  2.66e-03
  192  9.87745e-01  2.17e-03  1.48e-02  1.94e-03  2.66e-03
  193  9.87666e-01  2.17e-03  1.48e-02  1.94e-03  2.66e-03
  194  9.87587e-01  2.17e-03  1.48e-02  1.93e-03  2.65e-03
  195  9.87507e-01  2.17e-03  1.48e-02  1.93e-03  2.65e-03
  196  9.87437e-01  2.17e-03  1.47e-02  1.93e-03  2.65e-03
  197  9.87358e-01  2.17e-03  1.47e-02  1.93e-03  2.64e-03
  198  9.87279e-01  2.17e-03  1.47e-02  1.93e-03  2.64e-03
  199  9.87199e-01  2.17e-03  1.47e-02  1.93e-03  2.63e-03
  200  9.87129e-01  2.17e-03  1.47e-02  1.93e-03  2.63e-03
  201  9.87050e-01  2.17e-03  1.47e-02  1.92e-03  2.63e-03
  202  9.86970e-01  2.17e-03  1.47e-02  1.92e-03  2.62e-03
  203  9.86891e-01  2.17e-03  1.47e-02  1.92e-03  2.62e-03
  204  9.86821e-01  2.17e-03  1.46e-02  1.92e-03  2.61e-03
  205  9.86741e-01  2.17e-03  1.46e-02  1.92e-03  2.61e-03
  206  9.86671e-01  2.17e-03  1.46e-02  1.92e-03  2.61e-03
  207  9.86592e-01  2.17e-03  1.46e-02  1.92e-03  2.60e-03
  208  9.86512e-01  2.16e-03  1.46e-02  1.91e-03  2.60e-03
  209  9.86442e-01  2.16e-03  1.46e-02  1.91e-03  2.60e-03
  210  9.86363e-01  2.16e-03  1.46e-02  1.91e-03  2.59e-03
  211  9.86283e-01  2.16e-03  1.46e-02  1.91e-03  2.59e-03
  212  9.86213e-01  2.16e-03  1.45e-02  1.91e-03  2.59e-03
  213  9.86133e-01  2.16e-03  1.45e-02  1.91e-03  2.58e-03
  214  9.86054e-01  2.16e-03  1.45e-02  1.90e-03  2.58e-03
  215  9.85975e-01  2.16e-03  1.45e-02  1.90e-03  2.57e-03
  216  9.85904e-01  2.16e-03  1.45e-02  1.90e-03  2.57e-03
  217  9.85825e-01  2.16e-03  1.45e-02  1.90e-03  2.57e-03
  218  9.85754e-01  2.16e-03  1.45e-02  1.90e-03  2.56e-03
  219  9.85675e-01  2.16e-03  1.45e-02  1.90e-03  2.56e-03
  220  9.85596e-01  2.16e-03  1.44e-02  1.89e-03  2.56e-03
  221  9.85525e-01  2.16e-03  1.44e-02  1.89e-03  2.55e-03
  222  9.85446e-01  2.16e-03  1.44e-02  1.89e-03  2.55e-03
  223  9.85367e-01  2.16e-03  1.44e-02  1.89e-03  2.55e-03
  224  9.85296e-01  2.16e-03  1.44e-02  1.89e-03  2.54e-03
  225  9.85217e-01  2.16e-03  1.44e-02  1.89e-03  2.54e-03
  226  9.85137e-01  2.16e-03  1.44e-02  1.89e-03  2.53e-03
  227  9.85067e-01  2.16e-03  1.44e-02  1.88e-03  2.53e-03
  228  9.84987e-01  2.15e-03  1.43e-02  1.88e-03  2.53e-03
  229  9.84917e-01  2.15e-03  1.43e-02  1.88e-03  2.53e-03
  230  9.84837e-01  2.15e-03  1.43e-02  1.88e-03  2.52e-03
  231  9.84758e-01  2.15e-03  1.43e-02  1.88e-03  2.52e-03
  232  9.84687e-01  2.15e-03  1.43e-02  1.88e-03  2.51e-03
  233  9.84608e-01  2.15e-03  1.43e-02  1.88e-03  2.51e-03
  234  9.84529e-01  2.15e-03  1.43e-02  1.87e-03  2.51e-03
  235  9.84458e-01  2.15e-03  1.43e-02  1.87e-03  2.50e-03
  236  9.84379e-01  2.15e-03  1.42e-02  1.87e-03  2.50e-03
  237  9.84308e-01  2.15e-03  1.42e-02  1.87e-03  2.50e-03
  238  9.84229e-01  2.15e-03  1.42e-02  1.87e-03  2.49e-03
  239  9.84149e-01  2.15e-03  1.42e-02  1.87e-03  2.49e-03
  240  9.84079e-01  2.15e-03  1.42e-02  1.86e-03  2.49e-03
  241  9.83999e-01  2.15e-03  1.42e-02  1.86e-03  2.48e-03
  242  9.83929e-01  2.15e-03  1.42e-02  1.86e-03  2.48e-03
  243  9.83849e-01  2.15e-03  1.42e-02  1.86e-03  2.48e-03
  244  9.83779e-01  2.15e-03  1.41e-02  1.86e-03  2.47e-03
  245  9.83699e-01  2.15e-03  1.41e-02  1.86e-03  2.47e-03
  246  9.83620e-01  2.15e-03  1.41e-02  1.86e-03  2.46e-03
  247  9.83549e-01  2.14e-03  1.41e-02  1.85e-03  2.46e-03
  248  9.83470e-01  2.14e-03  1.41e-02  1.85e-03  2.46e-03
  249  9.83399e-01  2.14e-03  1.41e-02  1.85e-03  2.45e-03
  250  9.83320e-01  2.14e-03  1.41e-02  1.85e-03  2.45e-03
  251  9.83249e-01  2.14e-03  1.41e-02  1.85e-03  2.45e-03
  252  9.83169e-01  2.14e-03  1.41e-02  1.85e-03  2.44e-03
  253  9.83099e-01  2.14e-03  1.40e-02  1.85e-03  2.44e-03
  254  9.83019e-01  2.14e-03  1.40e-02  1.85e-03  2.44e-03
  255  9.82940e-01  2.14e-03  1.40e-02  1.84e-03  2.43e-03
  256  9.82869e-01  2.14e-03  1.40e-02  1.84e-03  2.43e-03
  257  9.82790e-01  2.14e-03  1.40e-02  1.84e-03  2.43e-03
  258  9.82719e-01  2.14e-03  1.40e-02  1.84e-03  2.42e-03
  259  9.82639e-01  2.14e-03  1.40e-02  1.84e-03  2.42e-03
  260  9.82569e-01  2.14e-03  1.40e-02  1.83e-03  2.42e-03
  261  9.82489e-01  2.14e-03  1.39e-02  1.83e-03  2.41e-03
  262  9.82418e-01  2.14e-03  1.39e-02  1.83e-03  2.41e-03
  263  9.82339e-01  2.14e-03  1.39e-02  1.83e-03  2.41e-03
  264  9.82268e-01  2.14e-03  1.39e-02  1.83e-03  2.40e-03
  265  9.82189e-01  2.13e-03  1.39e-02  1.83e-03  2.40e-03
  266  9.82118e-01  2.13e-03  1.39e-02  1.83e-03  2.40e-03
  267  9.82039e-01  2.13e-03  1.39e-02  1.82e-03  2.39e-03
  268  9.81959e-01  2.13e-03  1.39e-02  1.82e-03  2.39e-03
  269  9.81888e-01  2.13e-03  1.38e-02  1.82e-03  2.39e-03
  270  9.81809e-01  2.13e-03  1.38e-02  1.82e-03  2.38e-03
  271  9.81738e-01  2.13e-03  1.38e-02  1.82e-03  2.38e-03
  272  9.81658e-01  2.13e-03  1.38e-02  1.82e-03  2.38e-03
  273  9.81588e-01  2.13e-03  1.38e-02  1.82e-03  2.37e-03
  274  9.81508e-01  2.13e-03  1.38e-02  1.81e-03  2.37e-03
  275  9.81437e-01  2.13e-03  1.38e-02  1.81e-03  2.37e-03
  276  9.81358e-01  2.13e-03  1.38e-02  1.81e-03  2.36e-03
  277  9.81287e-01  2.13e-03  1.38e-02  1.81e-03  2.36e-03
  278  9.81208e-01  2.13e-03  1.37e-02  1.81e-03  2.36e-03
  279  9.81137e-01  2.13e-03  1.37e-02  1.81e-03  2.35e-03
  280  9.81057e-01  2.13e-03  1.37e-02  1.81e-03  2.35e-03
  281  9.80986e-01  2.13e-03  1.37e-02  1.80e-03  2.35e-03
  282  9.80907e-01  2.13e-03  1.37e-02  1.80e-03  2.34e-03
  283  9.80836e-01  2.12e-03  1.37e-02  1.80e-03  2.34e-03
  284  9.80756e-01  2.12e-03  1.37e-02  1.80e-03  2.34e-03
  285  9.80686e-01  2.12e-03  1.37e-02  1.80e-03  2.33e-03
  286  9.80606e-01  2.12e-03  1.36e-02  1.80e-03  2.33e-03
  287  9.80535e-01  2.12e-03  1.36e-02  1.80e-03  2.33e-03
  288  9.80456e-01  2.12e-03  1.36e-02  1.79e-03  2.32e-03
  289  9.80385e-01  2.12e-03  1.36e-02  1.79e-03  2.32e-03
  290  9.80305e-01  2.12e-03  1.36e-02  1.79e-03  2.32e-03
  291  9.80234e-01  2.12e-03  1.36e-02  1.79e-03  2.31e-03
  292  9.80155e-01  2.12e-03  1.36e-02  1.79e-03  2.31e-03
  293  9.80084e-01  2.12e-03  1.36e-02  1.79e-03  2.31e-03
  294  9.80004e-01  2.12e-03  1.36e-02  1.79e-03  2.30e-03
  295  9.79933e-01  2.12e-03  1.35e-02  1.78e-03  2.30e-03
  296  9.79854e-01  2.12e-03  1.35e-02  1.78e-03  2.30e-03
  297  9.79783e-01  2.12e-03  1.35e-02  1.78e-03  2.29e-03
  298  9.79703e-01  2.12e-03  1.35e-02  1.78e-03  2.29e-03
  299  9.79632e-01  2.11e-03  1.35e-02  1.78e-03  2.29e-03
  300  9.79553e-01  2.11e-03  1.35e-02  1.78e-03  2.28e-03
  301  9.79482e-01  2.11e-03  1.35e-02  1.77e-03  2.28e-03
  302  9.79402e-01  2.11e-03  1.35e-02  1.77e-03  2.28e-03
  303  9.79331e-01  2.11e-03  1.34e-02  1.77e-03  2.27e-03
  304  9.79252e-01  2.11e-03  1.34e-02  1.77e-03  2.27e-03
  305  9.79181e-01  2.11e-03  1.34e-02  1.77e-03  2.27e-03
  306  9.79101e-01  2.11e-03  1.34e-02  1.77e-03  2.26e-03
  307  9.79030e-01  2.11e-03  1.34e-02  1.77e-03  2.26e-03
  308  9.78959e-01  2.11e-03  1.34e-02  1.76e-03  2.26e-03
  309  9.78880e-01  2.11e-03  1.34e-02  1.76e-03  2.25e-03
  310  9.78809e-01  2.11e-03  1.34e-02  1.76e-03  2.25e-03
  311  9.78729e-01  2.11e-03  1.34e-02  1.76e-03  2.25e-03
  312  9.78658e-01  2.11e-03  1.33e-02  1.76e-03  2.24e-03
  313  9.78578e-01  2.11e-03  1.33e-02  1.76e-03  2.24e-03
  314  9.78507e-01  2.11e-03  1.33e-02  1.76e-03  2.24e-03
  315  9.78428e-01  2.10e-03  1.33e-02  1.76e-03  2.23e-03
  316  9.78357e-01  2.10e-03  1.33e-02  1.75e-03  2.23e-03
  317  9.78277e-01  2.10e-03  1.33e-02  1.75e-03  2.23e-03
  318  9.78206e-01  2.10e-03  1.33e-02  1.75e-03  2.22e-03
  319  9.78126e-01  2.10e-03  1.33e-02  1.75e-03  2.22e-03
  320  9.78055e-01  2.10e-03  1.33e-02  1.75e-03  2.22e-03
  321  9.77976e-01  2.10e-03  1.32e-02  1.75e-03  2.21e-03
  322  9.77905e-01  2.10e-03  1.32e-02  1.74e-03  2.21e-03
  323  9.77825e-01  2.10e-03  1.32e-02  1.74e-03  2.21e-03
  324  9.77754e-01  2.10e-03  1.32e-02  1.74e-03  2.20e-03
  325  9.77674e-01  2.10e-03  1.32e-02  1.74e-03  2.20e-03
  326  9.77603e-01  2.10e-03  1.32e-02  1.74e-03  2.20e-03
  327  9.77524e-01  2.10e-03  1.32e-02  1.74e-03  2.20e-03
  328  9.77453e-01  2.10e-03  1.32e-02  1.74e-03  2.19e-03
  329  9.77373e-01  2.10e-03  1.31e-02  1.74e-03  2.19e-03
  330  9.77302e-01  2.10e-03  1.31e-02  1.73e-03  2.19e-03
  331  9.77222e-01  2.09e-03  1.31e-02  1.73e-03  2.18e-03
  332  9.77151e-01  2.09e-03  1.31e-02  1.73e-03  2.18e-03
  333  9.77071e-01  2.09e-03  1.31e-02  1.73e-03  2.18e-03
  334  9.77000e-01  2.09e-03  1.31e-02  1.73e-03  2.17e-03
  335  9.76929e-01  2.09e-03  1.31e-02  1.73e-03  2.17e-03
