#  pivot_ell = 1700
#  norm_ell = 0
#  solid angle = 189.37 nsr
0 1.000000e+00 3.570282e-02
1 9.999448e-01 3.568174e-02
2 9.998555e-01 3.564767e-02
3 9.997720e-01 3.561582e-02
4 9.996857e-01 3.558294e-02
5 9.996012e-01 3.555070e-02
6 9.995155e-01 3.551805e-02
7 9.994306e-01 3.548573e-02
8 9.993451e-01 3.545317e-02
9 9.992601e-01 3.542083e-02
10 9.991747e-01 3.538834e-02
11 9.990896e-01 3.535601e-02
12 9.990043e-01 3.532356e-02
13 9.989192e-01 3.529124e-02
14 9.988338e-01 3.525884e-02
15 9.987487e-01 3.522653e-02
16 9.986635e-01 3.519417e-02
17 9.985783e-01 3.516188e-02
18 9.984931e-01 3.512955e-02
19 9.984080e-01 3.509729e-02
20 9.983227e-01 3.506500e-02
21 9.982376e-01 3.503276e-02
22 9.981523e-01 3.500049e-02
23 9.980672e-01 3.496829e-02
24 9.979820e-01 3.493605e-02
25 9.978969e-01 3.490387e-02
26 9.978117e-01 3.487167e-02
27 9.977266e-01 3.483951e-02
28 9.976414e-01 3.480734e-02
29 9.975563e-01 3.477521e-02
30 9.974711e-01 3.474306e-02
31 9.973860e-01 3.471096e-02
32 9.973008e-01 3.467885e-02
33 9.972157e-01 3.464677e-02
34 9.971305e-01 3.461469e-02
35 9.970454e-01 3.458264e-02
36 9.969603e-01 3.455059e-02
37 9.968752e-01 3.451857e-02
38 9.967900e-01 3.448655e-02
39 9.967049e-01 3.445456e-02
40 9.966198e-01 3.442256e-02
41 9.965347e-01 3.439060e-02
42 9.964496e-01 3.435863e-02
43 9.963645e-01 3.432670e-02
44 9.962794e-01 3.429476e-02
45 9.961943e-01 3.426285e-02
46 9.961092e-01 3.423095e-02
47 9.960241e-01 3.419907e-02
48 9.959390e-01 3.416719e-02
49 9.958540e-01 3.413534e-02
50 9.957689e-01 3.410349e-02
51 9.956838e-01 3.407167e-02
52 9.955987e-01 3.403985e-02
53 9.955137e-01 3.400805e-02
54 9.954286e-01 3.397626e-02
55 9.953436e-01 3.394449e-02
56 9.952585e-01 3.391273e-02
57 9.951735e-01 3.388099e-02
58 9.950884e-01 3.384926e-02
59 9.950034e-01 3.381755e-02
60 9.949183e-01 3.378585e-02
61 9.948333e-01 3.375417e-02
62 9.947483e-01 3.372249e-02
63 9.946633e-01 3.369084e-02
64 9.945782e-01 3.365919e-02
65 9.944932e-01 3.362757e-02
66 9.944082e-01 3.359595e-02
67 9.943232e-01 3.356435e-02
68 9.942382e-01 3.353277e-02
69 9.941532e-01 3.350120e-02
70 9.940682e-01 3.346964e-02
71 9.939832e-01 3.343810e-02
72 9.938982e-01 3.340657e-02
73 9.938132e-01 3.337506e-02
74 9.937282e-01 3.334356e-02
75 9.936432e-01 3.331207e-02
76 9.935582e-01 3.328060e-02
77 9.934733e-01 3.324915e-02
78 9.933883e-01 3.321770e-02
79 9.933033e-01 3.318628e-02
80 9.932183e-01 3.315486e-02
81 9.931334e-01 3.312346e-02
82 9.930484e-01 3.309208e-02
83 9.929635e-01 3.306071e-02
84 9.928785e-01 3.302935e-02
85 9.927936e-01 3.299801e-02
86 9.927086e-01 3.296668e-02
87 9.926237e-01 3.293537e-02
88 9.925388e-01 3.290407e-02
89 9.924538e-01 3.287279e-02
90 9.923689e-01 3.284151e-02
91 9.922840e-01 3.281026e-02
92 9.921991e-01 3.277902e-02
93 9.921141e-01 3.274779e-02
94 9.920292e-01 3.271658e-02
95 9.919443e-01 3.268538e-02
96 9.918594e-01 3.265419e-02
97 9.917745e-01 3.262302e-02
98 9.916896e-01 3.259187e-02
99 9.916047e-01 3.256073e-02
100 9.915198e-01 3.252960e-02
101 9.914349e-01 3.249849e-02
102 9.913500e-01 3.246739e-02
103 9.912652e-01 3.243630e-02
104 9.911803e-01 3.240523e-02
105 9.910954e-01 3.237418e-02
106 9.910105e-01 3.234313e-02
107 9.909257e-01 3.231211e-02
108 9.908408e-01 3.228109e-02
109 9.907560e-01 3.225010e-02
110 9.906711e-01 3.221911e-02
111 9.905863e-01 3.218814e-02
112 9.905014e-01 3.215719e-02
113 9.904166e-01 3.212625e-02
114 9.903317e-01 3.209532e-02
115 9.902469e-01 3.206441e-02
116 9.901621e-01 3.203351e-02
117 9.900772e-01 3.200263e-02
118 9.899924e-01 3.197175e-02
119 9.899076e-01 3.194090e-02
120 9.898228e-01 3.191006e-02
121 9.897380e-01 3.187923e-02
122 9.896531e-01 3.184842e-02
123 9.895683e-01 3.181762e-02
124 9.894835e-01 3.178684e-02
125 9.893987e-01 3.175607e-02
126 9.893139e-01 3.172531e-02
127 9.892291e-01 3.169457e-02
128 9.891443e-01 3.166384e-02
129 9.890596e-01 3.163313e-02
130 9.889748e-01 3.160243e-02
131 9.888900e-01 3.157175e-02
132 9.888052e-01 3.154108e-02
133 9.887205e-01 3.151042e-02
134 9.886357e-01 3.147978e-02
135 9.885509e-01 3.144916e-02
136 9.884662e-01 3.141854e-02
137 9.883814e-01 3.138795e-02
138 9.882967e-01 3.135736e-02
139 9.882119e-01 3.132679e-02
140 9.881272e-01 3.129624e-02
141 9.880424e-01 3.126570e-02
142 9.879577e-01 3.123517e-02
143 9.878730e-01 3.120466e-02
144 9.877882e-01 3.117416e-02
145 9.877035e-01 3.114368e-02
146 9.876188e-01 3.111320e-02
147 9.875341e-01 3.108275e-02
148 9.874493e-01 3.105231e-02
149 9.873646e-01 3.102188e-02
150 9.872799e-01 3.099147e-02
151 9.871952e-01 3.096107e-02
152 9.871105e-01 3.093069e-02
153 9.870258e-01 3.090032e-02
154 9.869411e-01 3.086996e-02
155 9.868564e-01 3.083962e-02
156 9.867718e-01 3.080930e-02
157 9.866871e-01 3.077898e-02
158 9.866024e-01 3.074869e-02
159 9.865177e-01 3.071840e-02
160 9.864330e-01 3.068813e-02
161 9.863484e-01 3.065788e-02
162 9.862637e-01 3.062764e-02
163 9.861791e-01 3.059741e-02
164 9.860944e-01 3.056720e-02
165 9.860097e-01 3.053700e-02
166 9.859251e-01 3.050681e-02
167 9.858404e-01 3.047665e-02
168 9.857558e-01 3.044649e-02
169 9.856712e-01 3.041635e-02
170 9.855865e-01 3.038622e-02
171 9.855019e-01 3.035611e-02
172 9.854173e-01 3.032601e-02
173 9.853326e-01 3.029593e-02
174 9.852480e-01 3.026586e-02
175 9.851634e-01 3.023580e-02
176 9.850788e-01 3.020576e-02
177 9.849942e-01 3.017574e-02
178 9.849096e-01 3.014572e-02
179 9.848250e-01 3.011572e-02
180 9.847404e-01 3.008574e-02
181 9.846558e-01 3.005577e-02
182 9.845712e-01 3.002581e-02
183 9.844866e-01 2.999587e-02
184 9.844020e-01 2.996595e-02
185 9.843174e-01 2.993603e-02
186 9.842329e-01 2.990614e-02
187 9.841483e-01 2.987625e-02
188 9.840637e-01 2.984638e-02
189 9.839792e-01 2.981653e-02
190 9.838946e-01 2.978668e-02
191 9.838100e-01 2.975686e-02
192 9.837255e-01 2.972704e-02
193 9.836409e-01 2.969725e-02
194 9.835564e-01 2.966746e-02
195 9.834718e-01 2.963769e-02
196 9.833873e-01 2.960794e-02
197 9.833028e-01 2.957820e-02
198 9.832182e-01 2.954847e-02
199 9.831337e-01 2.951876e-02
200 9.830492e-01 2.948906e-02
201 9.829647e-01 2.945937e-02
202 9.828801e-01 2.942970e-02
203 9.827956e-01 2.940005e-02
204 9.827111e-01 2.937040e-02
205 9.826266e-01 2.934078e-02
206 9.825421e-01 2.931116e-02
207 9.824576e-01 2.928157e-02
208 9.823731e-01 2.925198e-02
209 9.822886e-01 2.922241e-02
210 9.822041e-01 2.919285e-02
211 9.821196e-01 2.916331e-02
212 9.820352e-01 2.913378e-02
213 9.819507e-01 2.910427e-02
214 9.818662e-01 2.907477e-02
215 9.817817e-01 2.904529e-02
216 9.816973e-01 2.901582e-02
217 9.816128e-01 2.898636e-02
218 9.815284e-01 2.895692e-02
219 9.814439e-01 2.892749e-02
220 9.813594e-01 2.889808e-02
221 9.812750e-01 2.886868e-02
222 9.811906e-01 2.883929e-02
223 9.811061e-01 2.880992e-02
224 9.810217e-01 2.878056e-02
225 9.809372e-01 2.875122e-02
226 9.808528e-01 2.872189e-02
227 9.807684e-01 2.869258e-02
228 9.806840e-01 2.866328e-02
229 9.805995e-01 2.863399e-02
230 9.805151e-01 2.860472e-02
231 9.804307e-01 2.857547e-02
232 9.803463e-01 2.854622e-02
233 9.802619e-01 2.851699e-02
234 9.801775e-01 2.848778e-02
235 9.800931e-01 2.845858e-02
236 9.800087e-01 2.842939e-02
237 9.799243e-01 2.840022e-02
238 9.798399e-01 2.837106e-02
239 9.797555e-01 2.834192e-02
240 9.796712e-01 2.831279e-02
241 9.795868e-01 2.828368e-02
242 9.795024e-01 2.825458e-02
243 9.794181e-01 2.822549e-02
244 9.793337e-01 2.819642e-02
245 9.792493e-01 2.816736e-02
246 9.791650e-01 2.813832e-02
247 9.790806e-01 2.810929e-02
248 9.789963e-01 2.808027e-02
249 9.789119e-01 2.805127e-02
250 9.788276e-01 2.802229e-02
251 9.787432e-01 2.799331e-02
252 9.786589e-01 2.796436e-02
253 9.785746e-01 2.793541e-02
254 9.784902e-01 2.790648e-02
255 9.784059e-01 2.787757e-02
256 9.783216e-01 2.784866e-02
257 9.782373e-01 2.781978e-02
258 9.781530e-01 2.779090e-02
259 9.780687e-01 2.776205e-02
260 9.779843e-01 2.773320e-02
261 9.779000e-01 2.770437e-02
262 9.778157e-01 2.767556e-02
263 9.777315e-01 2.764675e-02
264 9.776472e-01 2.761797e-02
265 9.775629e-01 2.758919e-02
266 9.774786e-01 2.756043e-02
267 9.773943e-01 2.753169e-02
268 9.773100e-01 2.750296e-02
269 9.772258e-01 2.747424e-02
270 9.771415e-01 2.744554e-02
271 9.770572e-01 2.741685e-02
272 9.769730e-01 2.738818e-02
273 9.768887e-01 2.735952e-02
274 9.768044e-01 2.733087e-02
275 9.767202e-01 2.730224e-02
276 9.766359e-01 2.727362e-02
277 9.765517e-01 2.724502e-02
278 9.764675e-01 2.721643e-02
279 9.763832e-01 2.718786e-02
280 9.762990e-01 2.715930e-02
281 9.762148e-01 2.713075e-02
282 9.761305e-01 2.710222e-02
283 9.760463e-01 2.707370e-02
284 9.759621e-01 2.704520e-02
285 9.758779e-01 2.701671e-02
286 9.757937e-01 2.698823e-02
287 9.757095e-01 2.695977e-02
288 9.756252e-01 2.693132e-02
289 9.755410e-01 2.690289e-02
290 9.754568e-01 2.687447e-02
291 9.753727e-01 2.684607e-02
292 9.752885e-01 2.681768e-02
293 9.752043e-01 2.678930e-02
294 9.751201e-01 2.676094e-02
295 9.750359e-01 2.673259e-02
296 9.749517e-01 2.670426e-02
297 9.748676e-01 2.667594e-02
298 9.747834e-01 2.664764e-02
299 9.746992e-01 2.661935e-02
300 9.746151e-01 2.659107e-02
301 9.745309e-01 2.656281e-02
302 9.744468e-01 2.653456e-02
303 9.743626e-01 2.650632e-02
304 9.742785e-01 2.647810e-02
305 9.741943e-01 2.644990e-02
306 9.741102e-01 2.642171e-02
307 9.740260e-01 2.639353e-02
308 9.739419e-01 2.636537e-02
309 9.738578e-01 2.633722e-02
310 9.737737e-01 2.630908e-02
311 9.736895e-01 2.628096e-02
312 9.736054e-01 2.625286e-02
313 9.735213e-01 2.622476e-02
314 9.734372e-01 2.619669e-02
315 9.733531e-01 2.616862e-02
316 9.732690e-01 2.614057e-02
317 9.731849e-01 2.611254e-02
318 9.731008e-01 2.608451e-02
319 9.730167e-01 2.605651e-02
320 9.729326e-01 2.602851e-02
321 9.728485e-01 2.600053e-02
322 9.727645e-01 2.597257e-02
323 9.726804e-01 2.594462e-02
324 9.725963e-01 2.591668e-02
325 9.725122e-01 2.588876e-02
326 9.724282e-01 2.586085e-02
327 9.723441e-01 2.583296e-02
328 9.722600e-01 2.580508e-02
329 9.721760e-01 2.577721e-02
330 9.720919e-01 2.574936e-02
331 9.720079e-01 2.572152e-02
332 9.719238e-01 2.569370e-02
333 9.718398e-01 2.566589e-02
334 9.717558e-01 2.563809e-02
335 9.716717e-01 2.561031e-02
336 9.715877e-01 2.558255e-02
337 9.715037e-01 2.555479e-02
338 9.714196e-01 2.552706e-02
339 9.713356e-01 2.549933e-02
340 9.712516e-01 2.547162e-02
341 9.711676e-01 2.544393e-02
342 9.710836e-01 2.541624e-02
343 9.709996e-01 2.538858e-02
344 9.709156e-01 2.536092e-02
345 9.708316e-01 2.533328e-02
346 9.707476e-01 2.530566e-02
347 9.706636e-01 2.527805e-02
348 9.705796e-01 2.525045e-02
349 9.704956e-01 2.522286e-02
350 9.704116e-01 2.519530e-02
351 9.703277e-01 2.516776e-02
352 9.702437e-01 2.514284e-02
353 9.701597e-01 2.511793e-02
354 9.700758e-01 2.509303e-02
355 9.699918e-01 2.506813e-02
356 9.699078e-01 2.504325e-02
357 9.698239e-01 2.501838e-02
358 9.697399e-01 2.499352e-02
359 9.696560e-01 2.496866e-02
360 9.695720e-01 2.494382e-02
361 9.694881e-01 2.491899e-02
362 9.694042e-01 2.489416e-02
363 9.693202e-01 2.486935e-02
364 9.692363e-01 2.484454e-02
365 9.691524e-01 2.481975e-02
366 9.690685e-01 2.479496e-02
367 9.689845e-01 2.477019e-02
368 9.689006e-01 2.474542e-02
369 9.688167e-01 2.472066e-02
370 9.687328e-01 2.469592e-02
371 9.686489e-01 2.467118e-02
372 9.685650e-01 2.464645e-02
373 9.684811e-01 2.462173e-02
374 9.683972e-01 2.459702e-02
375 9.683133e-01 2.457232e-02
376 9.682294e-01 2.454764e-02
377 9.681456e-01 2.452296e-02
378 9.680617e-01 2.449829e-02
379 9.679778e-01 2.447363e-02
380 9.678939e-01 2.444897e-02
381 9.678101e-01 2.442433e-02
382 9.677262e-01 2.439970e-02
383 9.676423e-01 2.437508e-02
384 9.675585e-01 2.435047e-02
385 9.674746e-01 2.432586e-02
386 9.673908e-01 2.430127e-02
387 9.673069e-01 2.427669e-02
388 9.672231e-01 2.425211e-02
389 9.671392e-01 2.422755e-02
390 9.670554e-01 2.420300e-02
391 9.669716e-01 2.417845e-02
392 9.668878e-01 2.415391e-02
393 9.668039e-01 2.412939e-02
394 9.667201e-01 2.410487e-02
395 9.666363e-01 2.408037e-02
396 9.665525e-01 2.405587e-02
397 9.664687e-01 2.403138e-02
398 9.663849e-01 2.400690e-02
399 9.663011e-01 2.398244e-02
400 9.662173e-01 2.395798e-02
401 9.661335e-01 2.393353e-02
402 9.660497e-01 2.390909e-02
403 9.659659e-01 2.388466e-02
404 9.658821e-01 2.386024e-02
405 9.657983e-01 2.383583e-02
406 9.657145e-01 2.381143e-02
407 9.656308e-01 2.378704e-02
408 9.655470e-01 2.376266e-02
409 9.654632e-01 2.373829e-02
410 9.653795e-01 2.371392e-02
411 9.652957e-01 2.368957e-02
412 9.652119e-01 2.366523e-02
413 9.651282e-01 2.364090e-02
414 9.650444e-01 2.361657e-02
415 9.649607e-01 2.359226e-02
416 9.648769e-01 2.356795e-02
417 9.647932e-01 2.354366e-02
418 9.647095e-01 2.351937e-02
419 9.646257e-01 2.349510e-02
420 9.645420e-01 2.347083e-02
421 9.644583e-01 2.344657e-02
422 9.643746e-01 2.342233e-02
423 9.642909e-01 2.339809e-02
424 9.642071e-01 2.337386e-02
425 9.641234e-01 2.334964e-02
426 9.640397e-01 2.332544e-02
427 9.639560e-01 2.330124e-02
428 9.638723e-01 2.327705e-02
429 9.637886e-01 2.325287e-02
430 9.637049e-01 2.322870e-02
431 9.636212e-01 2.320454e-02
432 9.635376e-01 2.318039e-02
433 9.634539e-01 2.315625e-02
434 9.633702e-01 2.313211e-02
435 9.632865e-01 2.310799e-02
436 9.632029e-01 2.308388e-02
437 9.631192e-01 2.305978e-02
438 9.630355e-01 2.303568e-02
439 9.629519e-01 2.301160e-02
440 9.628682e-01 2.298753e-02
441 9.627846e-01 2.296346e-02
442 9.627009e-01 2.293941e-02
443 9.626173e-01 2.291536e-02
444 9.625336e-01 2.289133e-02
445 9.624500e-01 2.286730e-02
446 9.623664e-01 2.284328e-02
447 9.622827e-01 2.281928e-02
448 9.621991e-01 2.279528e-02
449 9.621155e-01 2.277129e-02
450 9.620318e-01 2.274731e-02
451 9.619482e-01 2.272334e-02
452 9.618646e-01 2.269939e-02
453 9.617810e-01 2.267544e-02
454 9.616974e-01 2.265150e-02
455 9.616138e-01 2.262757e-02
456 9.615302e-01 2.260365e-02
457 9.614466e-01 2.257974e-02
458 9.613630e-01 2.255583e-02
459 9.612794e-01 2.253194e-02
460 9.611958e-01 2.250806e-02
461 9.611123e-01 2.248419e-02
462 9.610287e-01 2.246032e-02
463 9.609451e-01 2.243647e-02
464 9.608615e-01 2.241263e-02
465 9.607780e-01 2.238879e-02
466 9.606944e-01 2.236497e-02
467 9.606108e-01 2.234115e-02
468 9.605273e-01 2.231735e-02
469 9.604437e-01 2.229355e-02
470 9.603602e-01 2.226977e-02
471 9.602766e-01 2.224599e-02
472 9.601931e-01 2.222222e-02
473 9.601096e-01 2.219847e-02
474 9.600260e-01 2.217472e-02
475 9.599425e-01 2.215098e-02
476 9.598590e-01 2.212725e-02
477 9.597754e-01 2.210353e-02
478 9.596919e-01 2.207982e-02
479 9.596084e-01 2.205612e-02
480 9.595249e-01 2.203243e-02
481 9.594414e-01 2.200875e-02
482 9.593579e-01 2.198508e-02
483 9.592744e-01 2.196142e-02
484 9.591909e-01 2.193776e-02
485 9.591074e-01 2.191412e-02
486 9.590239e-01 2.189049e-02
487 9.589404e-01 2.186687e-02
488 9.588569e-01 2.184325e-02
489 9.587734e-01 2.181965e-02
490 9.586900e-01 2.179605e-02
491 9.586065e-01 2.177247e-02
492 9.585230e-01 2.174889e-02
493 9.584395e-01 2.172533e-02
494 9.583561e-01 2.170177e-02
495 9.582726e-01 2.167822e-02
496 9.581892e-01 2.165469e-02
497 9.581057e-01 2.163116e-02
498 9.580223e-01 2.160764e-02
499 9.579388e-01 2.158413e-02
500 9.578554e-01 2.156063e-02
501 9.577719e-01 2.153714e-02
502 9.576885e-01 2.151366e-02
503 9.576051e-01 2.149019e-02
504 9.575216e-01 2.146673e-02
505 9.574382e-01 2.144328e-02
506 9.573548e-01 2.141984e-02
507 9.572714e-01 2.139641e-02
508 9.571880e-01 2.137298e-02
509 9.571046e-01 2.134957e-02
510 9.570212e-01 2.132617e-02
511 9.569378e-01 2.130277e-02
512 9.568544e-01 2.127939e-02
513 9.567710e-01 2.125602e-02
514 9.566876e-01 2.123265e-02
515 9.566042e-01 2.120929e-02
516 9.565208e-01 2.118595e-02
517 9.564374e-01 2.116261e-02
518 9.563540e-01 2.113929e-02
519 9.562707e-01 2.111597e-02
520 9.561873e-01 2.109266e-02
521 9.561039e-01 2.106936e-02
522 9.560206e-01 2.104607e-02
523 9.559372e-01 2.102279e-02
524 9.558538e-01 2.099952e-02
525 9.557705e-01 2.097626e-02
526 9.556871e-01 2.095301e-02
527 9.556038e-01 2.092977e-02
528 9.555204e-01 2.090654e-02
529 9.554371e-01 2.088332e-02
530 9.553538e-01 2.086011e-02
531 9.552704e-01 2.083691e-02
532 9.551871e-01 2.081371e-02
533 9.551038e-01 2.079053e-02
534 9.550205e-01 2.076735e-02
535 9.549371e-01 2.074419e-02
536 9.548538e-01 2.072103e-02
537 9.547705e-01 2.069789e-02
538 9.546872e-01 2.067475e-02
539 9.546039e-01 2.065163e-02
540 9.545206e-01 2.062851e-02
541 9.544373e-01 2.060540e-02
542 9.543540e-01 2.058231e-02
543 9.542707e-01 2.055922e-02
544 9.541874e-01 2.053614e-02
545 9.541042e-01 2.051307e-02
546 9.540209e-01 2.049001e-02
547 9.539376e-01 2.046696e-02
548 9.538543e-01 2.044392e-02
549 9.537711e-01 2.042089e-02
550 9.536878e-01 2.039787e-02
551 9.536045e-01 2.037486e-02
552 9.535213e-01 2.035185e-02
553 9.534380e-01 2.032886e-02
554 9.533548e-01 2.030588e-02
555 9.532715e-01 2.028290e-02
556 9.531883e-01 2.025994e-02
557 9.531050e-01 2.023698e-02
558 9.530218e-01 2.021404e-02
559 9.529386e-01 2.019110e-02
560 9.528553e-01 2.016818e-02
561 9.527721e-01 2.014526e-02
562 9.526889e-01 2.012235e-02
563 9.526057e-01 2.009946e-02
564 9.525224e-01 2.007657e-02
565 9.524392e-01 2.005369e-02
566 9.523560e-01 2.003082e-02
567 9.522728e-01 2.000796e-02
568 9.521896e-01 1.998511e-02
569 9.521064e-01 1.996227e-02
570 9.520232e-01 1.993944e-02
571 9.519400e-01 1.991662e-02
572 9.518568e-01 1.989381e-02
573 9.517737e-01 1.987101e-02
574 9.516905e-01 1.984821e-02
575 9.516073e-01 1.982543e-02
576 9.515241e-01 1.980266e-02
577 9.514410e-01 1.977989e-02
578 9.513578e-01 1.975714e-02
579 9.512746e-01 1.973439e-02
580 9.511915e-01 1.971166e-02
581 9.511083e-01 1.968893e-02
582 9.510252e-01 1.966621e-02
583 9.509420e-01 1.964351e-02
584 9.508589e-01 1.962081e-02
585 9.507757e-01 1.959812e-02
586 9.506926e-01 1.957544e-02
587 9.506095e-01 1.955278e-02
588 9.505263e-01 1.953012e-02
589 9.504432e-01 1.950747e-02
590 9.503601e-01 1.948483e-02
591 9.502770e-01 1.946219e-02
592 9.501938e-01 1.943957e-02
593 9.501107e-01 1.941696e-02
594 9.500276e-01 1.939436e-02
595 9.499445e-01 1.937177e-02
596 9.498614e-01 1.934918e-02
597 9.497783e-01 1.932661e-02
598 9.496952e-01 1.930404e-02
599 9.496121e-01 1.928149e-02
600 9.495290e-01 1.925894e-02
601 9.494459e-01 1.923641e-02
602 9.493629e-01 1.921388e-02
603 9.492798e-01 1.919137e-02
604 9.491967e-01 1.916886e-02
605 9.491136e-01 1.914636e-02
606 9.490306e-01 1.912387e-02
607 9.489475e-01 1.910139e-02
608 9.488644e-01 1.907892e-02
609 9.487814e-01 1.905646e-02
610 9.486983e-01 1.903401e-02
611 9.486153e-01 1.901157e-02
612 9.485322e-01 1.898914e-02
613 9.484492e-01 1.896672e-02
614 9.483661e-01 1.894431e-02
615 9.482831e-01 1.892191e-02
616 9.482001e-01 1.889951e-02
617 9.481170e-01 1.887713e-02
618 9.480340e-01 1.885475e-02
619 9.479510e-01 1.883239e-02
620 9.478680e-01 1.881003e-02
621 9.477849e-01 1.878769e-02
622 9.477019e-01 1.876535e-02
623 9.476189e-01 1.874302e-02
624 9.475359e-01 1.872071e-02
625 9.474529e-01 1.869840e-02
626 9.473699e-01 1.867610e-02
627 9.472869e-01 1.865381e-02
628 9.472039e-01 1.863153e-02
629 9.471209e-01 1.860926e-02
630 9.470380e-01 1.858700e-02
631 9.469550e-01 1.856475e-02
632 9.468720e-01 1.854251e-02
633 9.467890e-01 1.852028e-02
634 9.467061e-01 1.849805e-02
635 9.466231e-01 1.847584e-02
636 9.465401e-01 1.845364e-02
637 9.464572e-01 1.843144e-02
638 9.463742e-01 1.840926e-02
639 9.462913e-01 1.838708e-02
640 9.462083e-01 1.836492e-02
641 9.461254e-01 1.834276e-02
642 9.460424e-01 1.832062e-02
643 9.459595e-01 1.829848e-02
644 9.458765e-01 1.827635e-02
645 9.457936e-01 1.825423e-02
646 9.457107e-01 1.823212e-02
647 9.456278e-01 1.821002e-02
648 9.455448e-01 1.818793e-02
649 9.454619e-01 1.816585e-02
650 9.453790e-01 1.814378e-02
651 9.452961e-01 1.812172e-02
652 9.452132e-01 1.809967e-02
653 9.451303e-01 1.807763e-02
654 9.450474e-01 1.805559e-02
655 9.449645e-01 1.803357e-02
656 9.448816e-01 1.801156e-02
657 9.447987e-01 1.798955e-02
658 9.447158e-01 1.796756e-02
659 9.446329e-01 1.794557e-02
660 9.445500e-01 1.792359e-02
661 9.444672e-01 1.790163e-02
662 9.443843e-01 1.787967e-02
663 9.443014e-01 1.785772e-02
664 9.442185e-01 1.783578e-02
665 9.441357e-01 1.781385e-02
666 9.440528e-01 1.779193e-02
667 9.439700e-01 1.777002e-02
